0,1.62738633662229e-05,7.99068220658228e-06,0.000279257248621434,0.000791797356214374,0.000977176823653281,0.00079019129043445,0.000616256264038384,0.000415931484894827,0.000367409142199904,0.000452220323495567,0.000790150021202862,0.00119521433953196,0.00177406100556254,0.00219694897532463,0.00284321676008403,0.0041887890547514,0.00566629925742745,0.00690332753583789,0.00824843253940344,0.00986001640558243,0.0117425071075559,0.0138527071103454,0.0158582385629416,0.0174923688173294,0.01881954818964,0.0197083447128534,0.0203368663787842,0.0210322998464108,0.0218782816082239,0.0231179613620043,0.0246128626167774,0.0260328464210033,0.0269938558340073,0.0282143596559763,0.0301925502717495,0.0329488031566143,0.0358722917735577,0.0386861264705658,0.0413631647825241,0.0439445823431015,0.0462218374013901,0.0482333451509476,0.0499994941055775,0.0518520846962929,0.0534838289022446,0.0544764511287212,0.0550199933350086,0.0556754805147648,0.0562057346105576,0.0567527487874031,0.057194534689188,0.0570637881755829,0.0563227310776711,0.0552822537720203,0.0538456290960312,0.0527046397328377,0.0512218661606312,0.0492159053683281,0.0459072515368462,0.0411557517945766,0.0347729027271271,0.0267405565828085,0.0176906399428844,0.00818187836557627,-0.00189413072075695,-0.0124297710135579,-0.0236450005322695,-0.0344528704881668,-0.0451243296265602,-0.0544684529304504,-0.0624957047402859,-0.0688638612627983,-0.0736797079443932,-0.0771011114120483,-0.079319640994072,-0.0799160525202751,-0.0793017670512199,-0.0786393582820892,-0.0782845169305801,-0.0778931975364685,-0.0776041075587273,-0.0770807415246964,-0.0765224993228912,-0.0758017301559448,-0.0749401152133942,-0.0744928121566772,-0.0749148055911064,-0.0756209716200829,-0.0759540796279907,-0.075537383556366,-0.0745890736579895,-0.0737514048814774,-0.0727704837918282,-0.0719471350312233,-0.070791058242321,-0.0694302394986153,-0.0679089576005936,-0.0664366111159325,-0.0652467533946037,-0.0644911900162697,-0.0641203671693802,-0.064333550632,-0.0644092336297035,-0.0643590986728668,-0.0643857046961784,-0.0648566111922264,-0.0652696862816811,-0.0656880140304565,-0.0655181854963303,-0.06468665599823,-0.0627261102199554,-0.0604651868343353,-0.0581163726747036,-0.0560084246098995,-0.0541165210306644,-0.0521514751017094,-0.0503371804952621,-0.0486517772078514,-0.0474000461399555,-0.0466133654117584,-0.0463214069604874,-0.0468089208006859,-0.0475080832839012,-0.0479800216853619,-0.048166960477829,-0.0487335212528706,-0.0495150461792946,-0.0503562763333321,-0.0513839721679688,-0.0520539581775665,-0.0527362003922462,-0.0532836094498634,-0.053920466452837,-0.0548249371349812,-0.0558941587805748,-0.0570184104144573,-0.0574452131986618,-0.0576000101864338,-0.0574830695986748,-0.0575429759919643,-0.0576755478978157,-0.057626735419035,-0.0576387345790863,-0.0574617795646191,-0.0570941045880318,-0.0568592846393585,-0.0568654015660286,-0.0573814027011395,-0.0576242618262768,-0.0578557513654232,-0.0579226315021515,-0.0579231455922127,-0.0580282807350159,-0.0583744570612907,-0.059044249355793,-0.0597569830715656,-0.0595092065632343,-0.0585487820208073,-0.0569380894303322,-0.0551966615021229,-0.0528455413877964,-0.050080943852663,-0.0468269698321819,-0.0429438017308712,-0.0375499986112118,-0.03058160841465,-0.0219944436103106,-0.0123155461624265,-0.000390317640267313,0.0143388044089079,0.0320106185972691,0.052211120724678,0.0745982900261879,0.0996328443288803,0.127364605665207,0.157368779182434,0.190158486366272,0.225495293736458,0.262233316898346,0.298696041107178,0.334322929382324,0.368336319923401,0.400082975625992,0.42931854724884,0.453740328550339,0.469798475503922,0.475191235542297,0.468729585409164,0.451595216989517,0.425954788923264,0.392557144165039,0.351649940013885,0.305666774511337,0.256882041692734,0.204044312238693,0.146120697259903,0.0854500755667686,0.0229736566543579,-0.0424979403614998,-0.112275943160057,-0.188340932130814,-0.271724879741669,-0.363045364618301,-0.463866293430328,-0.575666964054108,-0.695446133613586,-0.819085955619812,-0.945223927497864,-1.07197451591492,-1.19717645645142,-1.3195104598999,-1.43787097930908,-1.55150580406189,-1.6590940952301,-1.76020538806915,-1.85444760322571,-1.94213306903839,-2.02352523803711,-2.09724831581116,-2.16240763664246,-2.21418142318726,-2.2496030330658,-2.2682774066925,-2.26915836334229,-2.25306797027588,-2.22073435783386,-2.17206430435181,-2.10818672180176,-2.03086423873901,-1.94320440292358,-1.84760558605194,-1.74979436397552,-1.65397000312805,-1.56025159358978,-1.46798026561737,-1.37752640247345,-1.28977525234222,-1.20483124256134,-1.12327456474304,-1.04556584358215,-0.970593154430389,-0.89767998456955,-0.826305508613586,-0.755885422229767,-0.687215864658356,-0.621418952941895,-0.558103561401367,-0.496870338916779,-0.438833177089691,-0.383279919624329,-0.329358279705048,-0.27718847990036,-0.227222695946693,-0.180085971951485,-0.136676982045174,-0.0967950001358986,-0.0615428276360035,-0.0315806642174721,-0.00682086776942015,0.0127559062093496,0.0277892015874386,0.0389621667563915,0.0464910492300987,0.0511129461228848,0.0534048601984978,0.0542677901685238,0.0534647144377232,0.0516873374581337,0.0495742708444595,0.0477180778980255,0.0472102425992489,0.0475666224956512,0.0480917580425739,0.0490094050765038,0.0502407811582088,0.0516452640295029,0.0531549900770187,0.0547797828912735,0.0567168034613132,0.0588565804064274,0.0609588734805584,0.0627527162432671,0.0642962604761124,0.0661308020353317,0.0678216964006424,0.0692961513996124,0.0707696452736855,0.0717973113059998,0.0725108757615089,0.0728478878736496,0.0727768614888191,0.0728352293372154,0.0725233852863312,0.071867898106575,0.0710636675357819,0.0702251046895981,0.0695575103163719,0.0693611279129982,0.0694348588585854,0.0697372183203697,0.0700870975852013,0.0704789906740189,0.0707451924681664,0.0713999345898628,0.0723254606127739,0.0733316689729691,0.0747091323137283,0.0756468549370766,0.0761962160468102,0.0765966176986694,0.0769816488027573,0.0774077996611595,0.0778912380337715,0.0786256045103073,0.0787953436374664,0.0787234604358673,0.0786188542842865,0.0783032923936844,0.0785897821187973,0.0788100734353065,0.0789334550499916,0.0789463967084885,0.0789139494299889,0.0790188014507294,0.0787773579359055,0.0789661929011345,0.0793115124106407,0.0795755982398987,0.0794928967952728,0.0792380198836327,0.0790451392531395,0.0788943767547607,0.0787750035524368,0.0785632133483887,0.0782265290617943,0.07808518409729,0.077961191534996,0.0778895318508148,0.0780360624194145,0.0788983106613159,0.0795580446720123,0.0804715529084206,0.0814342647790909,0.0821564719080925,0.0831372514367104,0.0845030471682549,0.0856736451387405,0.086708702147007,0.0874552354216576,0.087797187268734,0.0878659039735794,0.0880875661969185,0.0880615711212158,0.0879272818565369,0.0879549607634544,0.0879871398210526,0.0876027718186378,0.0872551798820496,0.0872710049152374,0.0876932889223099,0.0883289575576782,0.0887388736009598,0.0893043726682663,0.0900221318006516,0.0908558145165443,0.091784693300724,0.0926142185926437,0.0936343222856522,0.0946537852287292,0.0953172892332077,0.0957917273044586,0.0962289646267891,0.0969092547893524,0.0975750535726547,0.0981990918517113,0.0985489338636398,0.0990532264113426,0.0995112583041191,0.100198589265347,0.101154632866383,0.102080658078194,0.103247798979282,0.104265831410885,0.105070754885674,0.105773784220219,0.106479436159134,0.107363574206829,0.107852078974247,0.108241580426693,0.107977710664272,0.10746406763792,0.107438288629055,0.107525423169136,0.107589967548847,0.107709176838398,0.107727818191051,0.107623472809792,0.107657097280025,0.108053952455521,0.108512967824936,0.109069585800171,0.109681837260723,0.110028065741062,0.109862856566906,0.110006354749203,0.110149174928665,0.110584639012814,0.111151307821274,0.111418418586254,0.111302554607391,0.111220791935921,0.110836401581764,0.110415950417519,0.110037460923195,0.109885089099407,0.109183870255947,0.108408570289612,0.107165642082691,0.105819039046764,0.105055071413517,0.10451827198267,0.104127615690231,0.104014903306961,0.103660136461258,0.102850668132305,0.101988606154919,0.10161218047142,0.101110443472862,0.100799165666103,0.0998906716704369,0.0987292006611824,0.0974106267094612,0.0958299487829208,0.0944647789001465,0.0932097584009171,0.0922711342573166,0.0910825505852699,0.0894508585333824,0.0880611762404442,0.0868154838681221,0.0861557275056839,0.0851512476801872,0.0839661508798599,0.0827003344893456,0.0813859105110168,0.0800850614905357,0.0786511525511742,0.0774195268750191,0.0764212012290955,0.0750025138258934,0.0732339322566986,0.0712740272283554,0.0692858323454857,0.0671994835138321,0.0648795664310455,0.0622617788612843,0.0594574473798275,0.0564814992249012,0.0534643642604351,0.0506579764187336,0.0480560101568699,0.0454438850283623,0.0426398180425167,0.0398839637637138,0.0369579382240772,0.0343095697462559,0.0318528935313225,0.0294976327568293,0.0271899327635765,0.02464977838099,0.0217553991824389,0.018697751685977,0.0155188152566552,0.0125902760773897,0.00963097903877497,0.00732229603454471,0.00498682679608464,0.00249520433135331,0.000300544314086437,-0.00146020017564297,-0.00281241186894476,-0.00398094253614545,-0.00496210064738989,-0.00568711338564754,-0.00598776806145906,-0.00574338110163808,-0.00568591943010688,-0.00535310478881001,-0.00478114560246468,-0.00430873222649097,-0.00428171129897237,-0.00427078921347857,-0.00413894606754184,-0.00338196940720081,-0.00222833990119398,-0.00148734950926155,-0.000946437008678913,-0.00033810394234024,0.000507275573909283,0.00156019034329802,0.0028617475181818,0.00434368243440986,0.00595384882763028,0.00743562309071422,0.00850447546690702,0.00951261725276709,0.010688996873796,0.0118089327588677,0.0130361160263419,0.014083094894886,0.0146537264809012,0.0149313593283296,0.0153656573966146,0.0160101633518934,0.0167937967926264,0.0174684133380651,0.0179422777146101,0.0184092689305544,0.0187308397144079,0.0192819070070982,0.0198253709822893,0.0207243412733078,0.0215162299573421,0.0220799967646599,0.0223288852721453,0.0226014591753483,0.0229988135397434,0.0233033336699009,0.0235675536096096,0.0238197278231382,0.0235124658793211,0.0228204224258661,0.022209944203496,0.0218209009617567,0.0217673294246197,0.0216836184263229,0.0211910977959633,0.0206073950976133,0.0200066100805998,0.0193012021481991,0.0190818812698126,0.019165400415659,0.019228408113122,0.0191376022994518,0.0189657658338547,0.0184640269726515,0.0179318990558386,0.0180193241685629,0.0181151665747166,0.0184179376810789,0.0184387732297182,0.0179636031389236,0.0175418481230736,0.0174175314605236,0.017164645716548,0.0168730691075325,0.0167978405952454,0.0164248533546925,0.0158038139343262,0.0152694554999471,0.0148219047114253,0.0150318620726466,0.0152359902858734,0.0153947556391358,0.0154579263180494,0.0155961737036705,0.015678571537137,0.0159880109131336,0.016575887799263,0.0170931443572044,0.0174753945320845,0.0176286175847054,0.017696576192975,0.0178491547703743,0.0180267933756113,0.0182460583746433,0.0182317513972521,0.0183165185153484,0.0181447677314281,0.0182277914136648,0.018547784537077,0.019108098000288,0.0197302680462599,0.0201143249869347,0.0203767493367195,0.0203365162014961,0.0204693581908941,0.0209359526634216,0.0214720200747252,0.0219267942011356,0.0221403669565916,0.0218254420906305,0.0213570576161146,0.0209452323615551,0.0205333232879639,0.0202409122139215,0.0203354880213737,0.0205402243882418,0.0207855217158794,0.020652137696743,0.0206576082855463,0.0208204369992018,0.0212554056197405,0.0218652039766312,0.0223579704761505,0.022832004353404,0.0236191768199205,0.024297721683979,0.0245303623378277,0.0245623514056206,0.024793291464448,0.024830823764205,0.0244699753820896,0.0242547784000635,0.023968081921339,0.0238889884203672,0.0236450005322695,0.023401640355587,0.0227476023137569,0.0219847150146961,0.021492138504982,0.021292869001627,0.0212120302021503,0.0213635563850403,0.0217734538018703,0.0219235047698021,0.0221292153000832,0.0225801039487123,0.0222788080573082,0.022490257397294,0.0227876957505941,0.0227596405893564,0.0224924981594086,0.0220976453274488,0.0218854453414679,0.0213481597602367,0.0208188258111477,0.0201593544334173,0.0193620659410954,0.0189364273101091,0.0183625854551792,0.0181608516722918,0.0180379804223776,0.0180817693471909,0.0180675014853477,0.0179002210497856,0.0173903722316027,0.0172910206019878,0.0172168500721455,0.0172893553972244,0.0174860116094351,0.0172345191240311,0.0167373027652502,0.0163815543055534,0.015640813857317,0.0149245876818895,0.0142216701060534,0.0137283354997635,0.0129926297813654,0.0117978043854237,0.0106400605291128,0.00970666017383337,0.00902129057794809,0.00861508119851351,0.00815502367913723,0.00800148770213127,0.00786549411714077,0.00804747268557549,0.0082700289785862,0.00817478820681572,0.00842430256307125,0.00838150270283222,0.00802434980869293,0.00777873024344444,0.007522352039814,0.00728389760479331,0.00682254321873188,0.00633969530463219,0.00533021986484528,0.00435107760131359,0.0037352554500103,0.00320770172402263,0.00322596123442054,0.00329636270180345,0.00333547033369541,0.00306363380514085,0.00281935441307724,0.00278876442462206,0.0026651166845113,0.00280677084811032,0.00292278546839952,0.00279248901642859,0.0022278162650764,0.00147269095759839,0.000664759136270732,2.9510437372305e-20,-0.000499430170748383,-0.000953990325797349,-0.0015812017954886
0,-0.000181659896043129,-0.000521044421475381,-0.000980382086709142,-0.00139819690957665,-0.00181025348138064,-0.00212858873419464,-0.00230070622637868,-0.00249921344220638,-0.00274566956795752,-0.00285879196599126,-0.00305171520449221,-0.00331067107617855,-0.00306292599998415,-0.00250505283474922,-0.0020567188039422,-0.00164150190539658,-0.00109434698242694,-0.00038817198947072,0.000426079699536785,0.00163997826166451,0.00299161556176841,0.00437121139839292,0.00564613798633218,0.00674941437318921,0.0074791582301259,0.00830318685621023,0.00939961429685354,0.0102966167032719,0.011144413612783,0.0119198262691498,0.0127507094293833,0.0132403364405036,0.013670495711267,0.0143601456657052,0.0150750642642379,0.0162351243197918,0.0173626691102982,0.0186468958854675,0.0201272424310446,0.021445382386446,0.022925453260541,0.0241397749632597,0.0255082324147224,0.0270963087677956,0.0287298709154129,0.0304567292332649,0.0318676754832268,0.0333239883184433,0.0343221463263035,0.0350041426718235,0.0355143286287785,0.0355851575732231,0.0355117544531822,0.0353386774659157,0.0347028784453869,0.0337634645402431,0.0324822589755058,0.0310107879340649,0.0289690457284451,0.0259505417197943,0.0218999460339546,0.0166659317910671,0.0106141036376357,0.00410343101248145,-0.00257498887367547,-0.00931353773921728,-0.0159992519766092,-0.0226771105080843,-0.0293517243117094,-0.0354980081319809,-0.0405937545001507,-0.044363334774971,-0.0467137508094311,-0.0479360781610012,-0.048221867531538,-0.0480174422264099,-0.047334760427475,-0.0468037016689777,-0.0458477959036827,-0.0446556434035301,-0.0436323098838329,-0.0425744615495205,-0.0415483117103577,-0.0405593998730183,-0.0394296273589134,-0.0384478345513344,-0.0376029126346111,-0.0367092564702034,-0.035975206643343,-0.0353569500148296,-0.034473393112421,-0.033500749617815,-0.0324514247477055,-0.0310935862362385,-0.0297359451651573,-0.0288393944501877,-0.0283816289156675,-0.0285054855048656,-0.0291781611740589,-0.0296192783862352,-0.0303119737654924,-0.0316552631556988,-0.0331273898482323,-0.034673448652029,-0.0367623344063759,-0.0385630950331688,-0.0398399457335472,-0.040522787719965,-0.0408172309398651,-0.0405831374228001,-0.0396861173212528,-0.0384887121617794,-0.0370036698877811,-0.0356263294816017,-0.0345316119492054,-0.0335635058581829,-0.0332122333347797,-0.0333227813243866,-0.033800408244133,-0.0342104136943817,-0.034981980919838,-0.0363998487591743,-0.0380959510803223,-0.0398311652243137,-0.041214793920517,-0.0422456189990044,-0.0428255796432495,-0.0433320738375187,-0.0438252799212933,-0.0441605299711227,-0.0445080325007439,-0.0444543734192848,-0.0445567406713963,-0.0445272214710712,-0.0443295352160931,-0.0445197932422161,-0.0448116101324558,-0.0452975109219551,-0.0457780063152313,-0.0461690127849579,-0.0464995205402374,-0.0467818081378937,-0.0473912432789803,-0.0477451458573341,-0.04824123904109,-0.0487370193004608,-0.0488079041242599,-0.0488560013473034,-0.0488307103514671,-0.0486608780920506,-0.0483264401555061,-0.0480587966740131,-0.0477626100182533,-0.0473745502531528,-0.047243520617485,-0.0469556748867035,-0.0462399981915951,-0.0450780019164085,-0.0435986593365669,-0.041589081287384,-0.0387700572609901,-0.0355375558137894,-0.0318156778812408,-0.0271982699632645,-0.0210036486387253,-0.0124354278668761,-0.00158259470481426,0.0114273112267256,0.027415968477726,0.0473404414951801,0.07113978266716,0.0987329110503197,0.130044117569923,0.165667310357094,0.205385968089104,0.248908475041389,0.296215236186981,0.347667157649994,0.401985108852386,0.457559198141098,0.514561295509338,0.573079407215118,0.633192479610443,0.693524539470673,0.749641954898834,0.796397089958191,0.829224169254303,0.846867680549622,0.848977863788605,0.836389601230621,0.809119522571564,0.766349852085114,0.708183586597443,0.635497152805328,0.549702286720276,0.453761100769043,0.349413335323334,0.23786649107933,0.118264101445675,-0.00850780680775642,-0.142432272434235,-0.282277464866638,-0.427329212427139,-0.576687932014465,-0.731965959072113,-0.893957495689392,-1.06054198741913,-1.22696125507355,-1.39033114910126,-1.54729187488556,-1.69798874855042,-1.84198212623596,-1.97978508472443,-2.11120867729187,-2.23588848114014,-2.3521683216095,-2.45782947540283,-2.55306935310364,-2.63877558708191,-2.71205615997314,-2.76848936080933,-2.80504083633423,-2.8220489025116,-2.82053089141846,-2.80244112014771,-2.76804184913635,-2.71757197380066,-2.65189480781555,-2.57277274131775,-2.48178195953369,-2.38118767738342,-2.27644968032837,-2.17183470726013,-2.06712794303894,-1.96053946018219,-1.85250568389893,-1.74517703056335,-1.63959014415741,-1.53712439537048,-1.43850660324097,-1.34349048137665,-1.25239789485931,-1.1653745174408,-1.0821019411087,-1.00264406204224,-0.927923023700714,-0.856016576290131,-0.786591649055481,-0.720096588134766,-0.655952215194702,-0.59310644865036,-0.531480014324188,-0.471524804830551,-0.414065808057785,-0.359468907117844,-0.307932943105698,-0.25996145606041,-0.217146784067154,-0.179667681455612,-0.147038668394089,-0.118220709264278,-0.0925972536206245,-0.069352775812149,-0.0485492013394833,-0.0301421955227852,-0.0138300089165568,0.00041666891775094,0.0131563730537891,0.0250277202576399,0.036623265594244,0.047835998237133,0.0581817626953125,0.0676309391856194,0.0760077908635139,0.083366684615612,0.0898999497294426,0.0955396741628647,0.100495472550392,0.104764752089977,0.108970448374748,0.112872317433357,0.116732068359852,0.120607852935791,0.124308571219444,0.127665862441063,0.130873322486877,0.134079813957214,0.137373149394989,0.140485540032387,0.143354564905167,0.145682364702225,0.147873237729073,0.150026813149452,0.151836723089218,0.153564497828484,0.155124768614769,0.156922593712807,0.158392623066902,0.159600093960762,0.160836443305016,0.162253484129906,0.163978859782219,0.165711730718613,0.167566820979118,0.169492900371552,0.171233355998993,0.17294554412365,0.17455093562603,0.176367223262787,0.178367435932159,0.180152550339699,0.181645855307579,0.182930111885071,0.184731647372246,0.186168283224106,0.187363311648369,0.188858553767204,0.190209373831749,0.191296696662903,0.192251235246658,0.193175420165062,0.19445526599884,0.195756331086159,0.197194665670395,0.198353290557861,0.199675887823105,0.201421290636063,0.203018844127655,0.204735741019249,0.206746533513069,0.208885878324509,0.210801035165787,0.21228152513504,0.21386930346489,0.215332195162773,0.216923847794533,0.218666031956673,0.220061033964157,0.221341297030449,0.222937777638435,0.224265173077583,0.225646585226059,0.227143779397011,0.229199483990669,0.23131400346756,0.233547210693359,0.235318869352341,0.237088173627853,0.239501118659973,0.241908997297287,0.244043618440628,0.246331214904785,0.248304530978203,0.250369340181351,0.252263158559799,0.254361271858215,0.256442308425903,0.258759886026382,0.26104137301445,0.262996912002563,0.265032649040222,0.267175555229187,0.269407451152802,0.272191166877747,0.275090754032135,0.277752637863159,0.280448317527771,0.28346773982048,0.286752879619598,0.28988179564476,0.292954802513123,0.296256989240646,0.299802184104919,0.303399503231049,0.307021617889404,0.310502707958221,0.314338028430939,0.318326830863953,0.322211980819702,0.326232701539993,0.330090224742889,0.334255456924438,0.33840474486351,0.342474073171616,0.346641272306442,0.350744515657425,0.354959666728973,0.359112083911896,0.363232105970383,0.36736461520195,0.371247291564941,0.37575101852417,0.380167931318283,0.384562224149704,0.389144361019135,0.393759101629257,0.398250877857208,0.402880609035492,0.407407462596893,0.411796748638153,0.416150450706482,0.420626372098923,0.425169199705124,0.429666638374329,0.434273093938828,0.438745677471161,0.443111389875412,0.447874665260315,0.45267128944397,0.45748445391655,0.462464869022369,0.467275857925415,0.47178441286087,0.476268351078033,0.480845212936401,0.485472559928894,0.489959210157394,0.49431112408638,0.498226463794708,0.501991987228394,0.505984723567963,0.509923815727234,0.514074265956879,0.518182456493378,0.521835923194885,0.525436758995056,0.528724253177643,0.531953036785126,0.535305738449097,0.538593769073486,0.541695535182953,0.544307172298431,0.546523571014404,0.548555970191956,0.550432205200195,0.552291929721832,0.553768515586853,0.554935216903687,0.55587774515152,0.556365072727203,0.556639313697815,0.556435644626617,0.556251108646393,0.555852711200714,0.555072724819183,0.553973436355591,0.552275061607361,0.550312876701355,0.54825097322464,0.545968532562256,0.543535888195038,0.540712237358093,0.537660539150238,0.533778250217438,0.529529213905334,0.52484917640686,0.51991593837738,0.514811158180237,0.50919908285141,0.503198504447937,0.496470183134079,0.489398717880249,0.482002198696136,0.474454134702682,0.466735869646072,0.458629459142685,0.450315207242966,0.441636323928833,0.432938396930695,0.424340933561325,0.415455847978592,0.406474024057388,0.397038012742996,0.387253165245056,0.37737101316452,0.367406994104385,0.357216477394104,0.346803188323975,0.336420565843582,0.325805991888046,0.314867496490479,0.303912967443466,0.292946070432663,0.282168745994568,0.271682590246201,0.261275380849838,0.250814408063889,0.240495637059212,0.230282843112946,0.220370009541512,0.210611030459404,0.200835958123207,0.191181808710098,0.182219356298447,0.173254072666168,0.164342239499092,0.155563220381737,0.147384330630302,0.13977538049221,0.132373973727226,0.124821715056896,0.117449820041656,0.110672250390053,0.104099199175835,0.0975793227553368,0.0913982316851616,0.0854519605636597,0.0799153372645378,0.0744859650731087,0.06914272159338,0.0641221255064011,0.0593412071466446,0.0549167096614838,0.0508355870842934,0.0469601675868034,0.0429757423698902,0.0392566472291946,0.0358635932207108,0.0324582904577255,0.0290161482989788,0.0254998188465834,0.0222058296203613,0.0192042589187622,0.0161077342927456,0.013095835223794,0.0102407885715365,0.00757710821926594,0.0048871748149395,0.00215694075450301,-0.000319002865580842,-0.00262195966206491,-0.00471044518053532,-0.00665077986195683,-0.00850284937769175,-0.0100860306993127,-0.0117659363895655,-0.0131888128817081,-0.0145697006955743,-0.0160342566668987,-0.0174702685326338,-0.0188862793147564,-0.0201326198875904,-0.021332886070013,-0.0225537978112698,-0.0235894061625004,-0.0248217470943928,-0.0259513109922409,-0.0271271616220474,-0.0281614232808352,-0.0287224277853966,-0.0292324423789978,-0.0297723785042763,-0.0304586533457041,-0.0309806521981955,-0.031498059630394,-0.0319875665009022,-0.0321275629103184,-0.0321658104658127,-0.0320526100695133,-0.0320524834096432,-0.0320321284234524,-0.0318869389593601,-0.0318141579627991,-0.03145382553339,-0.0311890859156847,-0.0307826846837997,-0.030498718842864,-0.0299877095967531,-0.0297309346497059,-0.0295447800308466,-0.0289609618484974,-0.0281400829553604,-0.027071550488472,-0.0259849820286036,-0.0248733498156071,-0.0235869288444519,-0.0224009081721306,-0.0211823992431164,-0.0201538261026144,-0.0186041425913572,-0.0172169897705317,-0.0161887723952532,-0.0154316173866391,-0.0149125764146447,-0.0142488302662969,-0.013754578307271,-0.0132869984954596,-0.0126854190602899,-0.0120809515938163,-0.0113580236211419,-0.0107431299984455,-0.01012406591326,-0.0093255378305912,-0.00867020431905985,-0.00801495648920536,-0.00730679370462894,-0.00621164310723543,-0.00507291592657566,-0.00376046099700034,-0.0025603526737541,-0.00175405712798238,-0.00118990952614695,-0.000486787670524791,0.000257995910942554,0.00135183427482843,0.00256010517477989,0.00374859990552068,0.00469529628753662,0.00552900787442923,0.00589573383331299,0.00672774389386177,0.00796560198068619,0.00920458510518074,0.0105226328596473,0.0119689293205738,0.0130901634693146,0.0141796693205833,0.0148037150502205,0.0156163387000561,0.0164532791823149,0.0170944482088089,0.0175628364086151,0.0176835637539625,0.0179700739681721,0.0183152053505182,0.0186668243259192,0.0192072726786137,0.0193936452269554,0.0199597552418709,0.020505940541625,0.0210715308785439,0.0218442995101213,0.0225777309387922,0.0234497878700495,0.0241715796291828,0.0246348697692156,0.0247731916606426,0.0249145403504372,0.0252509936690331,0.0253598466515541,0.0251873228698969,0.0249208249151707,0.0246000178158283,0.0243127066642046,0.0240339208394289,0.0237352903932333,0.0234270114451647,0.0231963098049164,0.022924205288291,0.0226656068116426,0.0225977469235659,0.0225478243082762,0.0225185118615627,0.0226972512900829,0.0226241648197174,0.0220429264008999,0.0213418267667294,0.0205839723348618,0.0201830044388771,0.0193894989788532,0.0184333249926567,0.0172354076057673,0.0160857699811459,0.015082124620676,0.0139580462127924,0.0130739072337747,0.0127399787306786,0.0125242732465267,0.0122825605794787,0.0114567158743739,0.0107092903926969,0.0102022215723991,0.0101798065006733,0.0100691709667444,0.00988119468092918,0.00977772567421198,0.00945135671645403,0.00883715879172087,0.00829558726400137,0.00791751779615879,0.00770301651209593,0.00751019967719913,0.00746369268745184,0.00713640917092562,0.00677783088758588,0.00630806107074022,0.00586584769189358,0.00550415646284819,0.00511599145829678,0.00439387420192361,0.00357953365892172,0.00285180076025426,0.00222236244007945,0.00146905495785177,0.000729524937923998,2.9510437372305e-20,-0.000697363633662462,-0.00128327333368361,-0.00190866680350155
0,-0.000192661420442164,-0.000609631242696196,-0.0012131379917264,-0.00157537055201828,-0.00193184486124665,-0.00219459808431566,-0.00204479810781777,-0.00192138808779418,-0.00197909446433187,-0.00210321857593954,-0.00204080855473876,-0.00197784695774317,-0.00160793599206954,-0.000927897111978382,-0.000557148596271873,-1.97659246623516e-05,0.000649554713163525,0.00127814419101924,0.00194822705816478,0.00301795639097691,0.00415884051471949,0.00526109943166375,0.00632527330890298,0.00721779651939869,0.00793653912842274,0.00874956604093313,0.00963523983955383,0.0103214904665947,0.010625614784658,0.0110571067780256,0.0112777343019843,0.0112236905843019,0.0111101772636175,0.0112561555579305,0.0114274024963379,0.0119106229394674,0.0122947450727224,0.0129021303728223,0.0137056391686201,0.0147464433684945,0.0158160086721182,0.016952745616436,0.0181770324707031,0.0195543561130762,0.0209771655499935,0.0224932730197906,0.0236268807202578,0.0248724408447742,0.025726430118084,0.0261976737529039,0.0264971107244492,0.0266235154122114,0.0266056973487139,0.0264216214418411,0.0259079858660698,0.0250907335430384,0.0241980329155922,0.0232482273131609,0.0219279062002897,0.0200969092547894,0.017966240644455,0.0153845772147179,0.0123180160298944,0.00905894674360752,0.00576529977843165,0.00267785764299333,-0.000356750242644921,-0.0033169174566865,-0.00614067586138844,-0.0084361033514142,-0.0102802459150553,-0.0113308904692531,-0.0117613794282079,-0.011729615740478,-0.0110942330211401,-0.0101683903485537,-0.00903062243014574,-0.00797789636999369,-0.00676665594801307,-0.00538575230166316,-0.0041736732237041,-0.00279390369541943,-0.00151242164429277,-0.000135009526275098,0.00151643040589988,0.00295331072993577,0.00445306720212102,0.00573522690683603,0.00699094450101256,0.0081308726221323,0.00913658924400806,0.0100316489115357,0.0110033918172121,0.0119507219642401,0.0127646960318089,0.0130509873852134,0.0130316680297256,0.0126970577985048,0.0121465492993593,0.0115612577646971,0.0108575625345111,0.00956985726952553,0.00835306290537119,0.00686258636415005,0.00522878766059875,0.00374993984587491,0.00266184099018574,0.00163507577963173,0.000464044394902885,-0.000311619834974408,-0.000823860696982592,-0.00136863836087286,-0.00169235852081329,-0.00219036545604467,-0.00263807293958962,-0.00327898189425468,-0.00453672464936972,-0.00579019403085113,-0.00694466382265091,-0.00769859040156007,-0.00868090707808733,-0.00997661240398884,-0.0110844578593969,-0.0120982527732849,-0.0128270424902439,-0.0132696209475398,-0.0135276652872562,-0.0133127374574542,-0.0132176904007792,-0.0130978543311357,-0.0130568575114012,-0.0129476152360439,-0.0125948982313275,-0.0124432118609548,-0.0119901932775974,-0.0119917020201683,-0.0122279403731227,-0.0123919192701578,-0.0128834191709757,-0.0130856754258275,-0.0132940178737044,-0.0135873053222895,-0.0139414072036743,-0.0143063087016344,-0.0146136553958058,-0.014920687302947,-0.0147362370043993,-0.0145290028303862,-0.0142483757808805,-0.0137566281482577,-0.0135663570836186,-0.0132431304082274,-0.0127581981942058,-0.0122479684650898,-0.0119947753846645,-0.0117845125496387,-0.0113461771979928,-0.0107944319024682,-0.0101916827261448,-0.00939161702990532,-0.00824818387627602,-0.00662469770759344,-0.00477816490456462,-0.002568778116256,0.000485406577354297,0.0049144309014082,0.0107624791562557,0.0175025053322315,0.0260227769613266,0.0368808582425117,0.0499492064118385,0.0656794160604477,0.0837294459342957,0.104493454098701,0.127754926681519,0.153555139899254,0.182007700204849,0.213606640696526,0.248071640729904,0.284525185823441,0.323671817779541,0.366331934928894,0.413117319345474,0.463184416294098,0.513697862625122,0.562106549739838,0.605309665203094,0.642384707927704,0.672049582004547,0.694207012653351,0.708074688911438,0.712435305118561,0.705860495567322,0.687362253665924,0.658219218254089,0.62106055021286,0.575162291526794,0.520600199699402,0.4569171667099,0.385265618562698,0.305862247943878,0.220271855592728,0.129474878311157,0.0345707200467587,-0.0651874542236328,-0.172591283917427,-0.286785334348679,-0.40287834405899,-0.519517362117767,-0.634740948677063,-0.74902755022049,-0.862336814403534,-0.975980818271637,-1.09003698825836,-1.20380842685699,-1.31530499458313,-1.42071092128754,-1.52008998394012,-1.61512911319733,-1.70160412788391,-1.77476060390472,-1.83183133602142,-1.87275373935699,-1.89947831630707,-1.91475784778595,-1.91832220554352,-1.90994453430176,-1.88962173461914,-1.85778522491455,-1.814080119133,-1.76057136058807,-1.70178747177124,-1.64086222648621,-1.57738208770752,-1.50842428207397,-1.43336045742035,-1.35440742969513,-1.27320122718811,-1.19185352325439,-1.11215651035309,-1.03452968597412,-0.95996105670929,-0.889261603355408,-0.822313070297241,-0.759378969669342,-0.701181709766388,-0.645732402801514,-0.592498421669006,-0.542061030864716,-0.494040906429291,-0.44725289940834,-0.401684105396271,-0.357653439044952,-0.31578603386879,-0.27618145942688,-0.238772287964821,-0.20392881333828,-0.172710716724396,-0.145296767354012,-0.121201485395432,-0.0996521562337875,-0.080165408551693,-0.0624583847820759,-0.0461935102939606,-0.0312598645687103,-0.0178217831999063,-0.0055836196988821,0.00581340631470084,0.0164752453565598,0.0266615301370621,0.036598164588213,0.0458675883710384,0.0541738420724869,0.0617406852543354,0.0684893280267715,0.0743457451462746,0.0795083940029144,0.0840536877512932,0.0881787911057472,0.0921071469783783,0.0958648473024368,0.0994472652673721,0.102979138493538,0.106469094753265,0.109615638852119,0.112545765936375,0.115341745316982,0.118357732892036,0.121126212179661,0.123584724962711,0.125834941864014,0.128081396222115,0.130290552973747,0.132222652435303,0.134139165282249,0.135954767465591,0.137608423829079,0.139067456126213,0.14039708673954,0.141489267349243,0.142762139439583,0.144210189580917,0.145532563328743,0.146843954920769,0.148359537124634,0.149756073951721,0.15105776488781,0.15238581597805,0.153858155012131,0.155314713716507,0.156822487711906,0.157905295491219,0.15904538333416,0.160436406731606,0.161728873848915,0.163046061992645,0.16426394879818,0.165404066443443,0.1664137840271,0.167157560586929,0.168004184961319,0.168940111994743,0.170096978545189,0.171124830842018,0.17207270860672,0.173051357269287,0.173920154571533,0.175040647387505,0.176080703735352,0.177348062396049,0.178943753242493,0.180248647928238,0.181385204195976,0.182429328560829,0.183548286557198,0.184729442000389,0.186127692461014,0.187378525733948,0.188448041677475,0.189966946840286,0.191216751933098,0.192587167024612,0.194139942526817,0.196118056774139,0.198154985904694,0.200177431106567,0.201871514320374,0.203430071473122,0.205698847770691,0.207829371094704,0.209686651825905,0.211696922779083,0.213592663407326,0.215446710586548,0.217129796743393,0.219017148017883,0.22108718752861,0.223194018006325,0.225331336259842,0.22707611322403,0.228901103138924,0.230833262205124,0.232921004295349,0.235161006450653,0.237516939640045,0.239768296480179,0.242120072245598,0.24459582567215,0.247403874993324,0.250188857316971,0.252984553575516,0.256209135055542,0.259610146284103,0.262930124998093,0.266274929046631,0.269745022058487,0.273436158895493,0.277147620916367,0.280822038650513,0.28449884057045,0.288278788328171,0.292100071907043,0.295838862657547,0.29943111538887,0.303387552499771,0.3071468770504,0.31081834435463,0.314560294151306,0.318203210830688,0.321858614683151,0.325796902179718,0.329890102148056,0.333829909563065,0.337747156620026,0.34211853146553,0.346389353275299,0.350870072841644,0.355355650186539,0.359605193138123,0.363850295543671,0.36805984377861,0.372125267982483,0.376057833433151,0.380277931690216,0.384607076644897,0.388535976409912,0.392424583435059,0.396444439888,0.400830566883087,0.405366390943527,0.410002887248993,0.414536476135254,0.418701171875,0.423040926456451,0.427473664283752,0.431757062673569,0.436099529266357,0.440240681171417,0.444145023822784,0.447699785232544,0.451348602771759,0.455076992511749,0.458750337362289,0.46264773607254,0.466157048940659,0.469214230775833,0.472157806158066,0.475175827741623,0.478317707777023,0.481128722429276,0.484019696712494,0.486354023218155,0.488359689712524,0.490381151437759,0.492179781198502,0.494095087051392,0.495893567800522,0.497448742389679,0.498513460159302,0.499322652816772,0.500051975250244,0.500303387641907,0.500640571117401,0.500830411911011,0.500572144985199,0.499927967786789,0.498817801475525,0.497643560171127,0.496236532926559,0.494875252246857,0.493230670690536,0.491261541843414,0.488931268453598,0.486169874668121,0.482775449752808,0.479282885789871,0.47560378909111,0.471819639205933,0.467328488826752,0.462648540735245,0.457307487726212,0.451623320579529,0.445813804864883,0.439719587564468,0.433188825845718,0.426802575588226,0.419942200183868,0.412583976984024,0.404940396547318,0.397330671548843,0.389366775751114,0.381172955036163,0.372458398342133,0.363394975662231,0.35423418879509,0.344858437776566,0.335256159305573,0.325297981500626,0.315303832292557,0.304944604635239,0.294328033924103,0.283695429563522,0.2729172706604,0.262262105941772,0.251698344945908,0.241080403327942,0.230475276708603,0.219812572002411,0.209322437644005,0.199198856949806,0.189229130744934,0.17937645316124,0.16957813501358,0.160404935479164,0.151561826467514,0.142838731408119,0.134381651878357,0.126724407076836,0.119370795786381,0.11215814948082,0.104861214756966,0.0978778228163719,0.0914221704006195,0.0852376222610474,0.0791728273034096,0.0730473175644875,0.0673563852906227,0.0618087612092495,0.0563683807849884,0.0510807186365128,0.0463820472359657,0.0419230461120605,0.0380202122032642,0.0342610068619251,0.0307740923017263,0.0272447485476732,0.0241804886609316,0.0212425217032433,0.0185586381703615,0.0156381633132696,0.0127100870013237,0.00993776600807905,0.00739128096029162,0.00461667450144887,0.0019266918534413,-0.000806187861599028,-0.00321453483775258,-0.00571571802720428,-0.00812403485178947,-0.0104778129607439,-0.012525437399745,-0.0142254214733839,-0.0161101743578911,-0.0179066602140665,-0.019500844180584,-0.020991999655962,-0.0222261268645525,-0.0236180163919926,-0.024960407987237,-0.0263408366590738,-0.0275015141814947,-0.0286922696977854,-0.0300367064774036,-0.0312020368874073,-0.0321820601820946,-0.0332256518304348,-0.0342330522835255,-0.0352201536297798,-0.0361988320946693,-0.0369040034711361,-0.0375581905245781,-0.038242295384407,-0.0388729833066463,-0.0392728187143803,-0.0396014750003815,-0.0399022363126278,-0.0400532335042953,-0.0401690676808357,-0.0400668680667877,-0.0398779921233654,-0.0398020558059216,-0.0394681133329868,-0.0392065867781639,-0.0388572551310062,-0.0386035144329071,-0.0383412837982178,-0.0382014885544777,-0.0379678122699261,-0.0377220399677753,-0.0377466417849064,-0.0374401584267616,-0.0366302765905857,-0.0356393307447433,-0.0346303470432758,-0.0335297212004662,-0.0323874689638615,-0.0312790349125862,-0.0300715267658234,-0.0288542024791241,-0.0274486895650625,-0.0260725393891335,-0.0248555708676577,-0.0241094175726175,-0.0235347934067249,-0.0228820499032736,-0.0223322138190269,-0.0215427186340094,-0.0207523889839649,-0.019959170371294,-0.0192472450435162,-0.0185767691582441,-0.0177023690193892,-0.0169148445129395,-0.0158710107207298,-0.0150935975834727,-0.014130100607872,-0.0130459507927299,-0.0119848102331161,-0.0106833567842841,-0.00962741766124964,-0.00856578908860683,-0.00754655618220568,-0.0066546848975122,-0.00565456738695502,-0.00470489822328091,-0.00357421231456101,-0.00246330327354372,-0.00139444100204855,-0.000438563380157575,0.000250079814577475,0.00127083971165121,0.00243111257441342,0.00345934205688536,0.00476638833060861,0.00606851559132338,0.00731191504746675,0.00852358806878328,0.00940296798944473,0.0104043390601873,0.0113634467124939,0.0122599489986897,0.0129836685955524,0.0134263141080737,0.0139681585133076,0.0143688712269068,0.0148426573723555,0.0153055191040039,0.0155474748462439,0.0160360001027584,0.0164380148053169,0.0166596844792366,0.0170885324478149,0.0176112130284309,0.018272515386343,0.0187169704586267,0.019169257953763,0.0193631611764431,0.0194935109466314,0.019818963482976,0.0198502279818058,0.0197332873940468,0.0195223707705736,0.0191905628889799,0.0188256651163101,0.0186024624854326,0.0184925813227892,0.0181067157536745,0.0176652632653713,0.017448740079999,0.0171791408210993,0.0170336943119764,0.0169061869382858,0.016999039798975,0.0171001963317394,0.0171492751687765,0.0168233681470156,0.0164441876113415,0.0162080023437738,0.0161289516836405,0.0155907804146409,0.0149565227329731,0.014213690534234,0.0135191362351179,0.0129039930179715,0.0123015828430653,0.0118059450760484,0.0113944308832288,0.0110345566645265,0.0104489233344793,0.00974524486809969,0.0091865686699748,0.00866849906742573,0.00856849737465382,0.00838027708232403,0.00818129908293486,0.00786707736551762,0.00752970669418573,0.00703767500817776,0.00648510176688433,0.00616261456161737,0.00593711109831929,0.00560012506321073,0.00534286489710212,0.00500458013266325,0.00450183358043432,0.00408764509484172,0.00370101444423199,0.00326173775829375,0.00292915478348732,0.0025289545301348,0.00196994747966528,0.00156413204967976,0.00138977821916342,0.00102497183252126,0.000474191474495456,2.9510437372305e-20,-0.000508613942656666,-0.000905774009879678,-0.00127583416178823
0,-0.000431253516580909,-0.00108681549318135,-0.00166257913224399,-0.00213023601099849,-0.00259213475510478,-0.00282714469358325,-0.00264960154891014,-0.00269819959066808,-0.00299449800513685,-0.00322404620237648,-0.00320047652348876,-0.00291002029553056,-0.00224603083916008,-0.00173799984622747,-0.00160584296099842,-0.00150680355727673,-0.00134241010528058,-0.00121874734759331,-0.000920423946809024,-0.000422205310314894,0.000147167898830958,0.000611332536209375,0.000837660219985992,0.000892337469849735,0.00110615300945938,0.00161400495562702,0.00226108729839325,0.00270874495618045,0.00297402986325324,0.00330009777098894,0.00381480320356786,0.00418800534680486,0.00450173811987042,0.00487521151080728,0.00540712010115385,0.00585149927064776,0.00632994808256626,0.00703166052699089,0.00779632804915309,0.00866512395441532,0.00962926540523767,0.0104608256369829,0.0115796895697713,0.0127850025892258,0.0140358051285148,0.0151135679334402,0.0163415055721998,0.0175482239574194,0.0183633733540773,0.0188623610883951,0.0191229563206434,0.0191439371556044,0.0191538631916046,0.0189309436827898,0.0186448022723198,0.0182547979056835,0.0177893433719873,0.0172667820006609,0.0167066268622875,0.0163016319274902,0.0160630512982607,0.0156398117542267,0.0151311783120036,0.0145632037892938,0.0140938181430101,0.0135643016546965,0.0130876209586859,0.0125522138550878,0.0119534628465772,0.0114169577136636,0.0108656501397491,0.0106417555361986,0.0107716778293252,0.011297270655632,0.0118938144296408,0.0125144813209772,0.0134802423417568,0.014427543617785,0.0159328635782003,0.0175412613898516,0.019247168675065,0.0211207699030638,0.0228960812091827,0.0246341545134783,0.0263799224048853,0.0283106341958046,0.0304373893886805,0.0322799608111382,0.034295842051506,0.036062765866518,0.0375623181462288,0.0387514531612396,0.0398841053247452,0.0409257672727108,0.0417674779891968,0.0423478521406651,0.0423562750220299,0.041649904102087,0.040594469755888,0.039237916469574,0.0376297906041145,0.0359703227877617,0.0341820232570171,0.0322532020509243,0.0301144737750292,0.0283304508775473,0.0262713376432657,0.0242069754749537,0.0223312675952911,0.0203182548284531,0.0185020826756954,0.0165202040225267,0.0147593850269914,0.0129574444144964,0.0111392214894295,0.0091943796724081,0.00689904019236565,0.00494089210405946,0.00321491062641144,0.00168972194660455,0.000535396917257458,-0.00066598056582734,-0.00154633133206517,-0.00246579945087433,-0.00303367851302028,-0.00331534561701119,-0.00327931134961545,-0.00303663942031562,-0.00284726591780782,-0.00263310316950083,-0.00236461265012622,-0.00202787527814507,-0.00178058363962919,-0.00153457128908485,-0.00145331083331257,-0.00169341254513711,-0.00216824072413146,-0.00263739633373916,-0.0031011535320431,-0.00334224943071604,-0.00352284871041775,-0.00385497813113034,-0.00418133521452546,-0.0045850770547986,-0.00506443111225963,-0.00501080136746168,-0.00459885690361261,-0.00423071160912514,-0.00365600734949112,-0.00313651701435447,-0.00285191810689867,-0.00223461352288723,-0.00132243428379297,-0.000584709283430129,9.57280062721111e-05,0.000666653097141534,0.000866395595949143,0.000913213298190385,0.00101103633642197,0.00097325723618269,0.00107909238431603,0.00126547878608108,0.00114224024582654,0.000849186384584755,0.000668509223032743,0.000797330983914435,0.000946916465181857,0.000789975514635444,0.000482347386423498,0.000182095522177406,-0.000105152219475713,-0.000327307730913162,-0.000160566225531511,0.000123378515127115,0.000374597817426547,0.000434646382927895,0.000417078525060788,0.00141522416379303,0.00354823842644691,0.00700395787134767,0.0127533264458179,0.0223490223288536,0.0373350903391838,0.0572009384632111,0.0815746784210205,0.110568635165691,0.143745392560959,0.18078151345253,0.220594868063927,0.263221323490143,0.308810651302338,0.355812549591064,0.40226623415947,0.446118116378784,0.487914502620697,0.528353691101074,0.565712928771973,0.599402070045471,0.62982964515686,0.657349169254303,0.681111872196198,0.701683759689331,0.719845533370972,0.737362563610077,0.754153728485107,0.767294347286224,0.77690726518631,0.786019563674927,0.79358696937561,0.798375129699707,0.798640310764313,0.795288622379303,0.784610867500305,0.765064835548401,0.735216856002808,0.696457386016846,0.650472044944763,0.596197903156281,0.53041684627533,0.458351612091064,0.385688930749893,0.314130783081055,0.241209238767624,0.161578312516212,0.0722187235951424,-0.0243354979902506,-0.124594733119011,-0.223229497671127,-0.316343039274216,-0.399984836578369,-0.474888443946838,-0.543984174728394,-0.607010364532471,-0.660689830780029,-0.696640372276306,-0.711569964885712,-0.708694577217102,-0.692313313484192,-0.667201042175293,-0.636748373508453,-0.602439820766449,-0.566661775112152,-0.531556963920593,-0.497206628322601,-0.464607000350952,-0.434147506952286,-0.40497100353241,-0.376411855220795,-0.348784983158112,-0.321910738945007,-0.295070111751556,-0.269182354211807,-0.244033768773079,-0.219650134444237,-0.196597218513489,-0.174341395497322,-0.153253003954887,-0.133725926280022,-0.11560595780611,-0.0988737270236015,-0.0828896909952164,-0.0679694712162018,-0.0537636578083038,-0.0406670570373535,-0.0283024348318577,-0.0167009569704533,-0.00603306014090776,0.00406003277748823,0.0134845236316323,0.0221671257168055,0.030133992433548,0.0370341427624226,0.0430377013981342,0.0485016107559204,0.0536799840629101,0.0581658817827702,0.0624241046607494,0.0659317970275879,0.0690193101763725,0.0721098110079765,0.0754291713237762,0.0789061710238457,0.0824657827615738,0.0859834849834442,0.0891577750444412,0.0921822190284729,0.0951391160488129,0.0979830995202065,0.101045653223991,0.103731662034988,0.106209374964237,0.107950896024704,0.109655141830444,0.111148878931999,0.112760215997696,0.114204078912735,0.115485958755016,0.116639822721481,0.117464527487755,0.118451282382011,0.119818471372128,0.121427431702614,0.123509965837002,0.125581532716751,0.127457782626152,0.129281550645828,0.131077080965042,0.13309870660305,0.13526463508606,0.137547954916954,0.139549538493156,0.141259342432022,0.143026426434517,0.144778117537498,0.14623150229454,0.148242279887199,0.150020569562912,0.151854261755943,0.15329122543335,0.154462262988091,0.155669540166855,0.157032713294029,0.158550247550011,0.160005331039429,0.161447063088417,0.163252457976341,0.164814829826355,0.166495740413666,0.168162792921066,0.170123726129532,0.172413006424904,0.174544662237167,0.176441356539726,0.178245633840561,0.17992502450943,0.1816665828228,0.18342550098896,0.184903830289841,0.186400592327118,0.1880804002285,0.189824044704437,0.191621690988541,0.193734884262085,0.196273416280746,0.199070513248444,0.202052876353264,0.204706862568855,0.20722533762455,0.210187703371048,0.21301181614399,0.215762421488762,0.218399688601494,0.22092242538929,0.223336890339851,0.225713565945625,0.22809474170208,0.230658605694771,0.233325853943825,0.235890418291092,0.238262191414833,0.240913927555084,0.243539661169052,0.246387556195259,0.249520897865295,0.252703607082367,0.255848288536072,0.259159982204437,0.262462466955185,0.266163855791092,0.270241677761078,0.274663120508194,0.279113948345184,0.283741235733032,0.287954539060593,0.292325854301453,0.296822398900986,0.301406890153885,0.305612176656723,0.309846997261047,0.314017623662949,0.318091660737991,0.322140455245972,0.32610672712326,0.330126225948334,0.334576517343521,0.338896244764328,0.343128144741058,0.347630232572556,0.352499395608902,0.357247889041901,0.362146079540253,0.367265790700912,0.372298687696457,0.377708494663239,0.383172988891602,0.388670027256012,0.394243896007538,0.399955689907074,0.405364900827408,0.41083624958992,0.416338622570038,0.421896636486053,0.427588135004044,0.433300852775574,0.438989371061325,0.444677203893661,0.450524479150772,0.456436425447464,0.462648063898087,0.469209134578705,0.47560453414917,0.482163429260254,0.488486498594284,0.494784951210022,0.501309514045715,0.50775134563446,0.514318823814392,0.520684957504272,0.52681428194046,0.532594084739685,0.53813499212265,0.54375547170639,0.549454092979431,0.555443346500397,0.561177611351013,0.566592991352081,0.571894764900208,0.577071249485016,0.582438170909882,0.587807059288025,0.593322575092316,0.598481118679047,0.603644013404846,0.608489632606506,0.612912833690643,0.617319464683533,0.621675908565521,0.625655829906464,0.629411637783051,0.632645606994629,0.635799705982208,0.638609051704407,0.64130437374115,0.643519461154938,0.645419597625732,0.647067070007324,0.648381590843201,0.649498999118805,0.650383532047272,0.651047587394714,0.651694476604462,0.651950418949127,0.65177857875824,0.651242196559906,0.650605440139771,0.649737417697906,0.648483037948608,0.64685732126236,0.644657790660858,0.642069697380066,0.638753890991211,0.634828627109528,0.630378484725952,0.625443935394287,0.620139479637146,0.613914132118225,0.607214689254761,0.600083887577057,0.592268347740173,0.58395391702652,0.575218737125397,0.565721035003662,0.555569350719452,0.544669270515442,0.533272445201874,0.521127939224243,0.508756816387177,0.49556377530098,0.48186868429184,0.467675358057022,0.453158140182495,0.438158690929413,0.423146933317184,0.407991796731949,0.392794907093048,0.377344131469727,0.361839532852173,0.346343964338303,0.331020951271057,0.315997898578644,0.301195293664932,0.286309987306595,0.271745413541794,0.257539570331573,0.243663847446442,0.22984154522419,0.216751337051392,0.204128056764603,0.1918084025383,0.179563120007515,0.167433321475983,0.155550479888916,0.144461706280708,0.133577451109886,0.123145870864391,0.112653575837612,0.102928765118122,0.0934138596057892,0.084405705332756,0.0758165940642357,0.0680162236094475,0.0606552809476852,0.0539836771786213,0.0475888624787331,0.0416660904884338,0.0357674732804298,0.0308000259101391,0.0261586252599955,0.0217047221958637,0.0172139815986156,0.0127156367525458,0.00843963120132685,0.00425629550591111,-8.85778936208226e-05,-0.00441541196778417,-0.00871856044977903,-0.0126305902376771,-0.0167020428925753,-0.0207472089678049,-0.024671258404851,-0.0280893947929144,-0.0313596464693546,-0.0344151630997658,-0.0373824164271355,-0.0399476140737534,-0.0422100275754929,-0.0440822467207909,-0.0457793101668358,-0.0475600473582745,-0.049245648086071,-0.0506449192762375,-0.0521408505737782,-0.0533909648656845,-0.054661713540554,-0.0554142482578754,-0.0562969334423542,-0.0572100020945072,-0.0581693574786186,-0.0590537115931511,-0.0595979690551758,-0.0598914958536625,-0.0602815225720406,-0.0606181360781193,-0.0607238970696926,-0.0607584714889526,-0.0609649010002613,-0.0608884058892727,-0.0605104081332684,-0.0598477944731712,-0.0591650865972042,-0.0585287362337112,-0.0579673014581203,-0.0572785250842571,-0.0563021972775459,-0.0554880499839783,-0.0545988194644451,-0.0538320206105709,-0.0530379377305508,-0.0522983334958553,-0.051762517541647,-0.0512285456061363,-0.0503909215331078,-0.0492390617728233,-0.0482689253985882,-0.0474068894982338,-0.04643664509058,-0.0455002188682556,-0.0444647185504436,-0.0432862415909767,-0.0419861488044262,-0.0407820083200932,-0.039603877812624,-0.0386302284896374,-0.037828117609024,-0.0370144583284855,-0.0359707958996296,-0.0349537990987301,-0.0340025648474693,-0.0331150181591511,-0.0321755930781364,-0.0314107947051525,-0.0305086504667997,-0.0294270440936089,-0.02862180583179,-0.0280163995921612,-0.0272249095141888,-0.0265791025012732,-0.0259563028812408,-0.0252263620495796,-0.0245421808212996,-0.0239854790270329,-0.0235377568751574,-0.0230842307209969,-0.0225890409201384,-0.0216116290539503,-0.020386615768075,-0.0191813800483942,-0.0180847737938166,-0.0170345697551966,-0.015785513445735,-0.0141377551481128,-0.0124836536124349,-0.0105620911344886,-0.00889438204467297,-0.0073647596873343,-0.00589386513456702,-0.00472103245556355,-0.00348098995164037,-0.00231870682910085,-0.000932354188989848,-7.46925361454487e-05,0.000543602742254734,0.000880823761690408,0.00111749162897468,0.00167911488097161,0.00218064314685762,0.00247149704955518,0.0029409455601126,0.00319087831303477,0.00375380483455956,0.00413638586178422,0.00479272706434131,0.00547631783410907,0.00609878124669194,0.00670414697378874,0.00711759366095066,0.00747240893542767,0.00803000386804342,0.00838320050388575,0.00864196009933949,0.00855276174843311,0.00830300524830818,0.0079989405348897,0.00772837037220597,0.00786582939326763,0.00791685935109854,0.00822457578033209,0.00854328647255898,0.00855425931513309,0.00851215422153473,0.00879395380616188,0.00896052643656731,0.00934745650738478,0.00967610627412796,0.00988609716296196,0.00965451821684837,0.00936966296285391,0.00869513582438231,0.00797798857092857,0.00740097742527723,0.00692763086408377,0.00601278990507126,0.0054125627502799,0.00489174574613571,0.00411732774227858,0.00351626449264586,0.00306591112166643,0.0024674441665411,0.00197613798081875,0.00149995344690979,0.00096902105724439,0.00054527772590518,0.000539603584911674,0.000312542135361582,0.000141307347803377,0.000254331302130595,7.7871467510704e-05,-0.000120081887871493,-0.000112241279566661,-7.48290267438279e-06,6.10922725172713e-05,0.000151352083776146,0.000321338244248182,0.000277131446637213,0.000334798271069303,0.00028127248515375,0.000188720136065967,0.000176689325599,0.000138184652314521,3.20628569170367e-05,-9.96983217191882e-05,-7.8267912613228e-05,-9.17108845897019e-05,-0.000162438984261826,-0.00015280582010746,8.96872130124269e-19,-0.000147951868711971,-0.000184449847438373,-0.000193847779883072
0,-0.000613784592133015,-0.0015184615040198,-0.00247650779783726,-0.00319327972829342,-0.00363795831799507,-0.00385574856773019,-0.00399390421807766,-0.00422503380104899,-0.00450411206111312,-0.00458327308297157,-0.00467565096914768,-0.00436797551810741,-0.00381993339397013,-0.0033612665720284,-0.00307872239500284,-0.00282929558306932,-0.00244793039746583,-0.0019741291180253,-0.00139225053135306,-0.000810228288173676,-9.04674307093956e-05,0.000723835837561637,0.00110055122058839,0.00143878313247114,0.00213590520434082,0.0029273119289428,0.00372478179633617,0.00425624335184693,0.00453874748200178,0.0048154522664845,0.00534737715497613,0.00547146424651146,0.00560266571119428,0.00605994230136275,0.00640931958332658,0.00660458439961076,0.00683391839265823,0.00735309952870011,0.00813498720526695,0.0090875867754221,0.0100023653358221,0.0107179777696729,0.0118540618568659,0.013010011985898,0.0141448667272925,0.0153730176389217,0.0166181735694408,0.0177089441567659,0.018474729731679,0.0189909376204014,0.0193353369832039,0.0197064559906721,0.0202662721276283,0.0207929946482182,0.0209901593625546,0.0210834629833698,0.0211013145744801,0.0210620611906052,0.0212515443563461,0.0215961933135986,0.0221738386899233,0.0228331591933966,0.0234736688435078,0.0239882562309504,0.0246680155396461,0.0256871469318867,0.0264927763491869,0.0271730981767178,0.0278566591441631,0.028202960267663,0.0283347126096487,0.028327789157629,0.0284083485603333,0.028418492525816,0.0284330006688833,0.0281387139111757,0.0279231853783131,0.0280221179127693,0.0285458993166685,0.0291727613657713,0.0300968866795301,0.0311221145093441,0.0320490561425686,0.0330053456127644,0.0343022458255291,0.0359172597527504,0.0375951454043388,0.0389888510107994,0.0403561145067215,0.0415410064160824,0.0423919372260571,0.0430656261742115,0.0438159964978695,0.0442756190896034,0.044601883739233,0.0445336364209652,0.0438934415578842,0.0428713709115982,0.0416999906301498,0.0404938235878944,0.0392358377575874,0.0378599278628826,0.0363551788032055,0.0345767475664616,0.0329213254153728,0.031420860439539,0.0297118835151196,0.0277313254773617,0.0257396697998047,0.023344375193119,0.0206798315048218,0.0177164152264595,0.0150406444445252,0.012456919066608,0.00999007746577263,0.00739661836996675,0.00471899565309286,0.00244514807127416,0.000603219901677221,-0.000838164065498859,-0.00170893466565758,-0.00236042239703238,-0.00282405107282102,-0.00332679692655802,-0.00347795384004712,-0.00347606488503516,-0.00295672356151044,-0.00263024843297899,-0.00255682272836566,-0.00239202380180359,-0.00230606505647302,-0.00228502554818988,-0.00235343258827925,-0.00222336710430682,-0.00212488695979118,-0.00248093507252634,-0.00307171186432242,-0.00378998345695436,-0.00423652026802301,-0.00439381320029497,-0.00455719139426947,-0.00480551784858108,-0.00511465454474092,-0.00530142616480589,-0.00556380907073617,-0.00542637519538403,-0.00506379455327988,-0.00454526115208864,-0.00401992071419954,-0.00361637724563479,-0.00324797513894737,-0.00274661788716912,-0.00201697065494955,-0.0011954422807321,-0.000564368267077953,-0.00010939050844172,-0.000291930831735954,-0.000560811895411462,-0.000712104141712189,-0.000998997362330556,-0.00114227889571339,-0.00127159128896892,-0.00184369494672865,-0.00285195047035813,-0.0040807481855154,-0.00553271779790521,-0.0072968415915966,-0.00956724490970373,-0.012587589211762,-0.0166658964008093,-0.021530207246542,-0.0270618461072445,-0.0333365090191364,-0.0400932282209396,-0.0478148460388184,-0.0563934668898582,-0.0657821223139763,-0.0753535851836205,-0.0845225900411606,-0.0930347293615341,-0.0999856442213058,-0.104688242077827,-0.106464058160782,-0.104891538619995,-0.0996101126074791,-0.0893089845776558,-0.0744921341538429,-0.054817158728838,-0.0308335348963737,-0.00270511955022812,0.0300507415086031,0.0662833154201508,0.104963913559914,0.144704803824425,0.185852587223053,0.22837308049202,0.271009683609009,0.313971161842346,0.357266694307327,0.401049792766571,0.445137739181519,0.489497244358063,0.534509599208832,0.581007778644562,0.629576623439789,0.678556501865387,0.727870583534241,0.777815937995911,0.827148616313934,0.874700784683228,0.919061720371246,0.95980566740036,0.994355499744415,1.02116906642914,1.03987777233124,1.0506739616394,1.05357825756073,1.04759454727173,1.03183507919312,1.00912570953369,0.981957018375397,0.950566112995148,0.913417220115662,0.867162048816681,0.81091183423996,0.745935559272766,0.674324512481689,0.599211096763611,0.523027002811432,0.447991758584976,0.373837828636169,0.300631076097488,0.229698657989502,0.163252308964729,0.106411717832088,0.0612036772072315,0.0257440228015184,-0.00220225006341934,-0.0242806598544121,-0.0418176762759686,-0.0552324466407299,-0.0657129213213921,-0.0752020180225372,-0.0836478546261787,-0.0911810323596001,-0.0973253846168518,-0.101756513118744,-0.103608928620815,-0.103463895618916,-0.101674519479275,-0.0983207821846008,-0.0941887199878693,-0.088998019695282,-0.0827745497226715,-0.0758176818490028,-0.0679933205246925,-0.0601378791034222,-0.0519128292798996,-0.0440295338630676,-0.0361357256770134,-0.028191115707159,-0.0202449783682823,-0.0124805625528097,-0.00549245206639171,0.000963434635195881,0.0069890939630568,0.0124806743115187,0.0177303720265627,0.0224446337670088,0.0266833417117596,0.0303394831717014,0.0332618281245232,0.0355539135634899,0.0373729355633259,0.039239339530468,0.0410125255584717,0.0423582755029202,0.043353009968996,0.0441273041069508,0.0447714291512966,0.0456444099545479,0.0468747764825821,0.0481211766600609,0.0491924993693829,0.0503199137747288,0.0510311499238014,0.0518079958856106,0.0530046038329601,0.0541534535586834,0.0552586689591408,0.0563553422689438,0.0572484955191612,0.0579046085476875,0.058549989014864,0.0593129619956017,0.0599084421992302,0.0605417117476463,0.0609137862920761,0.0608901269733906,0.0609619319438934,0.0612810030579567,0.0618418417870998,0.0626099109649658,0.063367024064064,0.0643949061632156,0.0653703063726425,0.0664506331086159,0.0678902193903923,0.06960728764534,0.0715748965740204,0.0734605491161346,0.0751209780573845,0.076572373509407,0.0780749469995499,0.0794789642095566,0.080707959830761,0.0820373818278313,0.0831558704376221,0.0838776379823685,0.0842002928256989,0.0844926163554192,0.0847410932183266,0.0850107595324516,0.0854177251458168,0.0856781452894211,0.086035929620266,0.0862838625907898,0.0868500620126724,0.0876021459698677,0.0887147188186646,0.0900890529155731,0.0912391543388367,0.0924206599593163,0.0935763195157051,0.0945405066013336,0.0956334471702576,0.0967437401413918,0.0977732092142105,0.0983550176024437,0.0989867150783539,0.0997488051652908,0.100631512701511,0.101763173937798,0.103186994791031,0.104736223816872,0.106603883206844,0.108209758996964,0.110079608857632,0.112393349409103,0.114568844437599,0.116670846939087,0.118259973824024,0.119801178574562,0.121500432491302,0.123095318675041,0.12482787668705,0.12621046602726,0.127563238143921,0.128547012805939,0.129271417856216,0.130142614245415,0.131387323141098,0.133053928613663,0.134673073887825,0.13607519865036,0.137306183576584,0.138571009039879,0.140092968940735,0.141947209835052,0.144244506955147,0.146619066596031,0.14915619790554,0.151470258831978,0.153703272342682,0.156294018030167,0.158876895904541,0.161813989281654,0.164438486099243,0.16695936024189,0.169615775346756,0.172175586223602,0.17504309117794,0.177894666790962,0.180799469351768,0.183735549449921,0.186341315507889,0.189125582575798,0.191847145557404,0.194869190454483,0.198170036077499,0.201221108436584,0.204293981194496,0.207146808505058,0.210043653845787,0.213194906711578,0.216245606541634,0.219506219029427,0.222438737750053,0.225201785564423,0.228027030825615,0.230483770370483,0.233262479305267,0.236108094453812,0.238974928855896,0.241884142160416,0.244459763169289,0.247461184859276,0.250527232885361,0.25409272313118,0.258007675409317,0.261956691741943,0.26593604683876,0.269879341125488,0.27393114566803,0.278009325265884,0.28227111697197,0.286658525466919,0.290778070688248,0.294660776853561,0.298393696546555,0.301887720823288,0.305527865886688,0.309246212244034,0.312988817691803,0.316409915685654,0.319578647613525,0.322633773088455,0.325696766376495,0.329016774892807,0.3324054479599,0.335740864276886,0.338985741138458,0.341901987791061,0.344900548458099,0.347876071929932,0.35110142827034,0.354542911052704,0.357674449682236,0.360648483037949,0.362967520952225,0.365273237228394,0.367367386817932,0.369547247886658,0.371646404266357,0.373696953058243,0.375228404998779,0.376493602991104,0.37769478559494,0.378996074199677,0.380276530981064,0.382006049156189,0.383477687835693,0.384654760360718,0.385467261075974,0.386179387569427,0.386593669652939,0.386887967586517,0.387010663747787,0.386759221553802,0.386185884475708,0.384884774684906,0.383174031972885,0.381138175725937,0.379083931446075,0.376726359128952,0.37371426820755,0.37036120891571,0.366776615381241,0.362906694412231,0.358804315328598,0.354414284229279,0.349994152784348,0.344853490591049,0.339297384023666,0.333444178104401,0.327109664678574,0.320681780576706,0.31383141875267,0.30674535036087,0.298961222171783,0.290720075368881,0.282129943370819,0.273527443408966,0.264781564474106,0.255927383899689,0.24675264954567,0.237390995025635,0.227905184030533,0.218458771705627,0.209245726466179,0.200119972229004,0.191044688224792,0.181957185268402,0.172895520925522,0.164097368717194,0.155618995428085,0.147340029478073,0.139661192893982,0.132152780890465,0.124452419579029,0.116534613072872,0.10899692773819,0.101920403540134,0.0951149836182594,0.0886290669441223,0.0819492638111115,0.0755042880773544,0.0692692026495934,0.0632745325565338,0.0578986704349518,0.0532449595630169,0.0490306727588177,0.0449064709246159,0.0410590581595898,0.0375505238771439,0.0340661406517029,0.0311800129711628,0.0284201763570309,0.0259810071438551,0.0233718324452639,0.0206218864768744,0.0180942788720131,0.0155261736363173,0.0131960324943066,0.0109505169093609,0.00866210274398327,0.00663163792341948,0.00450833607465029,0.00234473356977105,0.000302254484267905,-0.00136748689692467,-0.00275617279112339,-0.00439621089026332,-0.00601456733420491,-0.00729745207354426,-0.00861047580838203,-0.0097330566495657,-0.0108136497437954,-0.0115784052759409,-0.0124477837234735,-0.0134303318336606,-0.0144429598003626,-0.0154760954901576,-0.0162635445594788,-0.0167991034686565,-0.0176645647734404,-0.0186269991099834,-0.0195691380649805,-0.0207026079297066,-0.0217623189091682,-0.0224381238222122,-0.0230106823146343,-0.0235298257321119,-0.0241510327905416,-0.0247676447033882,-0.0253563560545444,-0.0255289766937494,-0.0255332626402378,-0.0254526846110821,-0.0252854265272617,-0.025231109932065,-0.0251185428351164,-0.0250118039548397,-0.0248838420957327,-0.0245851408690214,-0.0243445318192244,-0.0243595186620951,-0.0244138035923243,-0.0242562368512154,-0.0241027045994997,-0.0236180908977985,-0.0230961684137583,-0.0224597621709108,-0.0218719020485878,-0.0209926459938288,-0.0202715173363686,-0.0192512851208448,-0.0179322324693203,-0.0166033618152142,-0.0152860498055816,-0.0141312712803483,-0.0132688442245126,-0.01247772667557,-0.0117249740287662,-0.0108275143429637,-0.0102327158674598,-0.00979775842279196,-0.00956172216683626,-0.00932279508560896,-0.00916515942662954,-0.00904897507280111,-0.00872886646538973,-0.00829588063061237,-0.00780633697286248,-0.00758321490138769,-0.00737376045435667,-0.00711023714393377,-0.00653680320829153,-0.00598939182236791,-0.0057540787383914,-0.00564624276012182,-0.00578055530786514,-0.00597564456984401,-0.00612907251343131,-0.00606661383062601,-0.00588972121477127,-0.00566602125763893,-0.0055509521625936,-0.00568203721195459,-0.00541451666504145,-0.00468171248212457,-0.0037428115028888,-0.00260303495451808,-0.00145077670458704,-0.00030343746766448,0.000452255364507437,0.00144255568739027,0.00230031530372798,0.00321348290890455,0.00428413692861795,0.00489268265664577,0.00519527960568666,0.00528338551521301,0.00547069031745195,0.00565003138035536,0.00590244494378567,0.00621051946654916,0.00629768567159772,0.00636508734896779,0.00654573179781437,0.00667919730767608,0.00701984018087387,0.00738773215562105,0.00782766379415989,0.00805074628442526,0.00828166119754314,0.00825419370085001,0.00856267381459475,0.00879992172122002,0.00880956556648016,0.00860441941767931,0.00817213207483292,0.00755236810073256,0.00709926662966609,0.00665469188243151,0.00639002257958055,0.0062488722614944,0.00598554871976376,0.00541448732838035,0.00505668297410011,0.00495619932189584,0.00494024017825723,0.00514463940635324,0.00535734137520194,0.00538480142131448,0.00530360918492079,0.00503597408533096,0.00451183458790183,0.00421140994876623,0.00378478714264929,0.00326207652688026,0.00256420741789043,0.00191461679060012,0.00141101970802993,0.000853573146741837,0.000536065141204745,0.000302683300105855,5.43550886504818e-05,-8.68120332597755e-05,-0.000346025015460327,-0.000393650814658031,-0.000334087526425719,-5.62065215490293e-05,0.000133454610477202,0.000112607245682739,0.000242851136135869,0.000216778935282491,0.000302380707580596,0.00046060883323662,0.000649170891847461,0.000801549758762121,0.000975613365881145,0.00102965184487402,0.00100266502704471,0.00121071934700012,0.00144074857234955,0.00156516756396741,0.00150377291720361,0.00121615314856172,0.000927500077523291,0.000546623661648482,0.000452106381999329,0.000389299530070275,0.000269207666860893,0.000229476965614595,2.9510437372305e-20,-0.00026389941922389,-0.000482928793644533,-0.000608274363912642
0,-0.00025207016733475,-0.000728448794689029,-0.00119161303155124,-0.00161325419321656,-0.00182938610669225,-0.00161887786816806,-0.00132873537950218,-0.00113156659062952,-0.000982346595264971,-0.000766376848332584,-0.000430456566391513,3.9182385080494e-05,0.000749187311157584,0.00143640127498657,0.00188090850133449,0.00229229847900569,0.00270245899446309,0.00307188858278096,0.0035493946634233,0.00402704533189535,0.00464243395254016,0.00521919736638665,0.005558124743402,0.00605831993743777,0.00678423745557666,0.00780419120565057,0.00869704037904739,0.00939046498388052,0.00983493309468031,0.0102070160210133,0.0108343213796616,0.0111869554966688,0.0113469520583749,0.0116998562589288,0.0117451110854745,0.0115030845627189,0.0113617116585374,0.0115101849660277,0.0117881977930665,0.012370090931654,0.0129807451739907,0.0133922342211008,0.0140910279005766,0.0150760216638446,0.0160399209707975,0.0172302834689617,0.0185042358934879,0.019490635022521,0.0204849671572447,0.0210965536534786,0.0218026675283909,0.0224689189344645,0.0231241136789322,0.0236796326935291,0.0240387618541718,0.024294026196003,0.0242740884423256,0.0243302155286074,0.0248814132064581,0.0254546087235212,0.0265271365642548,0.0274150036275387,0.0283506438136101,0.0293601136654615,0.0304681695997715,0.0318490155041218,0.0332161113619804,0.0345910638570786,0.0358360931277275,0.036610696464777,0.036970991641283,0.0373257845640182,0.0376348905265331,0.0378735810518265,0.0379834659397602,0.0377845615148544,0.0375312454998493,0.0373926348984241,0.0375457108020782,0.0378684476017952,0.0384218692779541,0.0391429737210274,0.0395660437643528,0.0400850400328636,0.0410112328827381,0.0422555357217789,0.0436958856880665,0.0451849699020386,0.0462481118738651,0.047262042760849,0.0479420199990273,0.0483115836977959,0.0488244146108627,0.0489799156785011,0.0490686409175396,0.0485631041228771,0.047685369849205,0.0464923419058323,0.0449502542614937,0.0437728837132454,0.0424771085381508,0.0411299951374531,0.0397872105240822,0.0380375720560551,0.0365441143512726,0.0351390279829502,0.0337917692959309,0.0321729257702827,0.0302100628614426,0.0277769789099693,0.0252078156918287,0.022206611931324,0.0194930508732796,0.0170047041028738,0.0146332439035177,0.0122683318331838,0.00961950421333313,0.00744103686884046,0.00569448713213205,0.00454823393374681,0.00403917813673615,0.00354965450242162,0.00331457168795168,0.00297379004769027,0.00285142846405506,0.00301527953706682,0.00329708121716976,0.00378552009351552,0.00402090884745121,0.00414791982620955,0.00426267459988594,0.0043790927156806,0.00447264825925231,0.00483126053586602,0.00509170489385724,0.00483103608712554,0.00426905369386077,0.00371274654753506,0.0032284208573401,0.00296675669960678,0.00263242167420685,0.00227972376160324,0.00193279888480902,0.00164165487512946,0.00134148390498012,0.0012413781369105,0.00143300334457308,0.00191374821588397,0.00233471742831171,0.00270047225058079,0.00289791775867343,0.00336148706264794,0.00378701137378812,0.00417124852538109,0.00449819909408689,0.00464905379340053,0.00442872475832701,0.00392230460420251,0.00333372130990028,0.00260953651741147,0.00196238211356103,0.00126261077821255,0.000319799088174477,-0.00105916277971119,-0.00285841966979206,-0.00494743091985583,-0.00748176407068968,-0.0105223776772618,-0.014113181270659,-0.018495611846447,-0.0237972121685743,-0.0298327244818211,-0.0366112627089024,-0.0442047752439976,-0.0524968504905701,-0.0617125183343887,-0.0720045492053032,-0.0825459733605385,-0.0930178537964821,-0.103165790438652,-0.112684667110443,-0.120954021811485,-0.127827987074852,-0.132685288786888,-0.134965643286705,-0.133424758911133,-0.127900838851929,-0.118317820131779,-0.105291716754436,-0.0889864042401314,-0.0690524354577065,-0.0461078137159348,-0.020715169608593,0.00640360033139586,0.0349292494356632,0.0653603002429008,0.09663987159729,0.128843575716019,0.162446647882462,0.19740292429924,0.233795955777168,0.271592438220978,0.310907363891602,0.352507144212723,0.396643668413162,0.44265604019165,0.489735096693039,0.5377117395401,0.585475206375122,0.631990849971771,0.676513731479645,0.718751311302185,0.756925523281097,0.790559351444244,0.819018185138702,0.842227637767792,0.86007559299469,0.871831953525543,0.877341568470001,0.87763237953186,0.873264074325562,0.864007830619812,0.849326431751251,0.828601658344269,0.801144421100616,0.767557859420776,0.728535115718842,0.685144364833832,0.638685405254364,0.590046167373657,0.539891183376312,0.488819092512131,0.438023716211319,0.388318687677383,0.341095000505447,0.297646880149841,0.257754921913147,0.220915228128433,0.187346607446671,0.156721383333206,0.12908647954464,0.103853203356266,0.0801439583301544,0.0580106750130653,0.0377222038805485,0.0198213215917349,0.00456582987681031,-0.00817754399031401,-0.0185239389538765,-0.0270262602716684,-0.0337644517421722,-0.0391916632652283,-0.0431607328355312,-0.0456309393048286,-0.0465021654963493,-0.0460397973656654,-0.0447473600506783,-0.0426192246377468,-0.0399006679654121,-0.036638930439949,-0.0326605513691902,-0.0284143090248108,-0.0242166239768267,-0.0202625710517168,-0.0165078267455101,-0.013383056037128,-0.0104594472795725,-0.0076445541344583,-0.00516534643247724,-0.00309510692022741,-0.00147426652256399,-0.000387474283343181,0.000202232666197233,0.000651785812806338,0.00114872737322003,0.00168561807367951,0.00206140684895217,0.00215276516973972,0.00209026341326535,0.00209734961390495,0.00239987298846245,0.00286002713255584,0.00320305302739143,0.00377049739472568,0.00432745320722461,0.00440164329484105,0.00460803369060159,0.00516760116443038,0.00567940762266517,0.00621416373178363,0.00660721212625504,0.00686332397162914,0.00714872963726521,0.00735681550577283,0.0074827503412962,0.00777410669252276,0.0082364222034812,0.00823778565973043,0.00804317090660334,0.00821035448461771,0.00862480606883764,0.00928102433681488,0.0100778928026557,0.0109969628974795,0.0119870603084564,0.012991257943213,0.0139006273820996,0.0149695063009858,0.0165822021663189,0.0182456877082586,0.0194942951202393,0.0203845221549273,0.0213320422917604,0.022397318854928,0.0232308804988861,0.0240891631692648,0.0249147210270166,0.0253295786678791,0.0254142992198467,0.0250999163836241,0.0248217824846506,0.0247661340981722,0.0249314270913601,0.0249011032283306,0.0249239895492792,0.0250442307442427,0.0251212008297443,0.0252501126378775,0.0258978214114904,0.026839442551136,0.0277764834463596,0.0287556312978268,0.029566427692771,0.0304179675877094,0.0312111992388964,0.0318002663552761,0.0324066840112209,0.0327991023659706,0.0330767966806889,0.0330714508891106,0.0333962477743626,0.0339748300611973,0.034469448029995,0.0352562256157398,0.0360352508723736,0.0368663668632507,0.037768617272377,0.0388016700744629,0.0401454493403435,0.0416173189878464,0.0430156961083412,0.0439011976122856,0.0446721948683262,0.0457344055175781,0.0466256663203239,0.0477877631783485,0.0488662272691727,0.0495819672942162,0.050195038318634,0.0505487248301506,0.0507162995636463,0.051124207675457,0.0519540272653103,0.0528029501438141,0.0533017069101334,0.0536958985030651,0.0539907515048981,0.0544761680066586,0.0554270446300507,0.0563548691570759,0.0576263070106506,0.0590602904558182,0.06047098711133,0.0616674497723579,0.0631550773978233,0.0647014081478119,0.0664022117853165,0.06785698980093,0.0692081451416016,0.0705616846680641,0.0720849484205246,0.073516421020031,0.074998527765274,0.0766004472970963,0.0782336443662643,0.079536534845829,0.0809513404965401,0.0823700129985809,0.0839560106396675,0.0856210589408875,0.0872360840439796,0.0888728946447372,0.0903562754392624,0.0920834094285965,0.0937320366501808,0.0952135100960732,0.0968383327126503,0.0982682108879089,0.099462054669857,0.100584901869297,0.101605601608753,0.102615341544151,0.103625401854515,0.104723267257214,0.10559719055891,0.106337249279022,0.107369959354401,0.108600459992886,0.110197238624096,0.112210042774677,0.114123776555061,0.116067819297314,0.117975778877735,0.119792558252811,0.121835440397263,0.123862147331238,0.12614768743515,0.128165364265442,0.129879608750343,0.131444051861763,0.132902756333351,0.134640783071518,0.136456981301308,0.138364061713219,0.140016183257103,0.141549125313759,0.142901882529259,0.144062712788582,0.145613774657249,0.147433206439018,0.149132832884789,0.150475606322289,0.151756018400192,0.153185367584229,0.154591679573059,0.156247809529305,0.157986894249916,0.159882158041,0.161486729979515,0.162636041641235,0.163705468177795,0.164896234869957,0.166239321231842,0.167568251490593,0.168648838996887,0.169343486428261,0.170104846358299,0.170735538005829,0.171532958745956,0.172842219471931,0.174334228038788,0.175568327307701,0.176374658942223,0.177082806825638,0.177557423710823,0.178000465035439,0.178523316979408,0.178807958960533,0.178651928901672,0.178173959255219,0.177101418375969,0.175885543227196,0.174677461385727,0.173717364668846,0.172653689980507,0.171401560306549,0.169808477163315,0.168316781520844,0.166806071996689,0.165662169456482,0.164563551545143,0.163368239998817,0.16185188293457,0.1599200963974,0.157824382185936,0.155713438987732,0.153442531824112,0.151215240359306,0.148685663938522,0.145657822489738,0.142306089401245,0.138405606150627,0.134625911712646,0.130636289715767,0.126804679632187,0.122652538120747,0.118113711476326,0.113450728356838,0.108827143907547,0.104303762316704,0.0998676642775536,0.0951491221785545,0.0905515104532242,0.0859797820448875,0.0814051926136017,0.0768840536475182,0.0727620869874954,0.0688407197594643,0.0652229785919189,0.0610803477466106,0.0569200292229652,0.0527403317391872,0.0490217879414558,0.0456409342586994,0.0421800836920738,0.0387916825711727,0.0355049408972263,0.0320951752364635,0.0290589854121208,0.0262420959770679,0.0240807849913836,0.0218928083777428,0.0200612489134073,0.018173560500145,0.0161586664617062,0.0143676744773984,0.0130417672917247,0.0117089869454503,0.0103639541193843,0.00891549699008465,0.00712651992216706,0.00542671419680119,0.00388616090640426,0.00238382187671959,0.00109927321318537,-9.50048342929222e-05,-0.00123108504340053,-0.00239341775886714,-0.00352946785278618,-0.00421147560700774,-0.0048536635003984,-0.00521479733288288,-0.00576069997623563,-0.0063515049405396,-0.00680658919736743,-0.00715864449739456,-0.00752000696957111,-0.00770621513947845,-0.0079095046967268,-0.00828400254249573,-0.00883825030177832,-0.00942257978022099,-0.00996083486825228,-0.0103199826553464,-0.0104938289150596,-0.0107312425971031,-0.0111322114244103,-0.0114462999626994,-0.0118851345032454,-0.0121836280450225,-0.0122313853353262,-0.0120427263900638,-0.0118672363460064,-0.0118603929877281,-0.0118489535525441,-0.0118096191436052,-0.0116205243393779,-0.0112630967050791,-0.0109539711847901,-0.0107579184696078,-0.0107413902878761,-0.0106666088104248,-0.0107974093407393,-0.0109069868922234,-0.0109124109148979,-0.0109093384817243,-0.0110952854156494,-0.0114536928012967,-0.0118665816262364,-0.0120171755552292,-0.0120364371687174,-0.0117520522326231,-0.0112866004928946,-0.0109362825751305,-0.0104943169280887,-0.010010726749897,-0.00942778587341309,-0.00861260760575533,-0.00758786033838987,-0.00684100715443492,-0.00652302196249366,-0.00636422075331211,-0.00640989746898413,-0.0064939372241497,-0.00656644022092223,-0.00674185203388333,-0.00701051950454712,-0.00741152605041862,-0.00800939090549946,-0.00868854951113462,-0.00894307252019644,-0.00886050332337618,-0.00866505689918995,-0.00841305404901505,-0.00842746999114752,-0.0084555558860302,-0.00816323701292276,-0.00769417453557253,-0.00718455156311393,-0.00678727589547634,-0.00671722833067179,-0.00695591233670712,-0.00712220603600144,-0.00711367093026638,-0.00702241575345397,-0.00681672804057598,-0.00656423298642039,-0.00675328774377704,-0.00718849524855614,-0.00729168206453323,-0.00706275226548314,-0.00656114285811782,-0.00565890502184629,-0.00501052150502801,-0.00469997664913535,-0.00451474217697978,-0.00409490056335926,-0.00354126421734691,-0.00293221930041909,-0.00203252187930048,-0.00179468235000968,-0.00179620971903205,-0.00181247491855174,-0.00192929338663816,-0.00178774131927639,-0.00143994763493538,-0.00116966164205223,-0.00112028373405337,-0.00122383749112487,-0.00108098180498928,-0.000985303893685341,-0.000216362692299299,0.000646410800982267,0.00131488917395473,0.00189968629274517,0.00249231630004942,0.00295973080210388,0.00349675770848989,0.00396255264058709,0.00433391099795699,0.00442389585077763,0.00408698664978147,0.00329626770690084,0.00267221033573151,0.00252276659011841,0.00222030887380242,0.00190820242278278,0.00167367479298264,0.00133115984499454,0.00100215140264481,0.000930463604163378,0.00107646721880883,0.00157599721569568,0.00221699755638838,0.0027393396012485,0.00282011087983847,0.00291419005952775,0.00281834928318858,0.00274647120386362,0.00268156267702579,0.00252056680619717,0.00225099571980536,0.00196311948820949,0.00182123691774905,0.00149233732372522,0.00133679260034114,0.00126537377946079,0.00117900886107236,0.00113322085235268,0.000836219580378383,0.000817389402072877,0.000972332200035453,0.00127900869119912,0.00143088155891746,0.00143882993143052,0.00159786944277585,0.0014008415164426,0.00124890357255936,0.00123617588542402,0.00125378218945116,0.00150154053699225,0.00137148064095527,0.00125456321984529,0.000923453189898282,0.000893967982847244,0.000819873821455985,0.000706753227859735,0.000607570400461555,0.000481913797557354,0.000155472414917313,-0.0001966083800653,-0.000328913825796917,-0.000163173710461706,-5.47186136827804e-05,6.75138508086093e-05,-4.04170425159548e-19,3.12312840833329e-05,0.00017391647270415,0.000343701598467305
0,5.58797291887458e-05,8.72024174896069e-05,0.000198323410586454,8.46320544951595e-05,-0.000289636256638914,-0.000570183445233852,-0.000771096500102431,-0.00079864781582728,-0.000874148099683225,-0.00101606617681682,-0.00130436883773655,-0.0017918711528182,-0.00250509427860379,-0.00324110826477408,-0.00375374220311642,-0.00403315853327513,-0.00444697216153145,-0.00483493227511644,-0.00524798361584544,-0.00566089106723666,-0.00626897905021906,-0.00678252382203937,-0.00713440403342247,-0.00752476695924997,-0.00802232697606087,-0.0086919367313385,-0.00955523457378149,-0.0104182073846459,-0.0114635527133942,-0.0127810323610902,-0.0140430433675647,-0.0152468057349324,-0.0163768697530031,-0.0175137761980295,-0.018558831885457,-0.0196248330175877,-0.0209896825253963,-0.0223310180008411,-0.0236094035208225,-0.0248502399772406,-0.0258625652641058,-0.0270740576088428,-0.0282645784318447,-0.0296349823474884,-0.0309599041938782,-0.0323912762105465,-0.0334727242588997,-0.0341758914291859,-0.0346047878265381,-0.034817174077034,-0.0348018705844879,-0.0346266739070415,-0.0342627838253975,-0.03386539965868,-0.0333314910531044,-0.0328348577022552,-0.0323470942676067,-0.0325156897306442,-0.0329216346144676,-0.0337050780653954,-0.0348547846078873,-0.0361891500651836,-0.0376089103519917,-0.038954846560955,-0.0404685251414776,-0.0419091656804085,-0.0432303883135319,-0.0442774221301079,-0.0449217073619366,-0.045304000377655,-0.0455013401806355,-0.0453712716698647,-0.0451537184417248,-0.0450731627643108,-0.0449882447719574,-0.0447460301220417,-0.0446248166263103,-0.044588640332222,-0.0447268709540367,-0.0448951907455921,-0.0451657436788082,-0.0453351959586143,-0.0453366003930569,-0.045175489038229,-0.044873520731926,-0.0447195246815681,-0.0445692390203476,-0.0443036295473576,-0.0439978800714016,-0.0434750020503998,-0.0427534095942974,-0.0418095625936985,-0.0407890304923058,-0.0399926602840424,-0.0389967299997807,-0.0376628898084164,-0.0361685790121555,-0.0344568863511086,-0.0327613390982151,-0.0309008229523897,-0.0289589632302523,-0.0270684398710728,-0.0252401735633612,-0.0232860874384642,-0.0213421583175659,-0.0196427777409554,-0.0180187374353409,-0.0162001922726631,-0.0143261635676026,-0.0121899349614978,-0.00999003555625677,-0.00788925588130951,-0.00583375338464975,-0.00395253859460354,-0.002287358045578,-0.000415876478655264,0.00137144105974585,0.00289669563062489,0.00418803188949823,0.0052140736952424,0.00601172400638461,0.00682890648022294,0.00743444403633475,0.00786769762635231,0.00825303792953491,0.00859167147427797,0.00844900216907263,0.00831321813166142,0.00819071941077709,0.0080264275893569,0.00784987770020962,0.00760840903967619,0.0072109098546207,0.00701188435778022,0.00698102405294776,0.00716147152706981,0.00737352622672915,0.00765783851966262,0.00781438127160072,0.00772749911993742,0.00776769779622555,0.00778953311964869,0.00788372475653887,0.00803369842469692,0.00824122782796621,0.00818273611366749,0.00801647454500198,0.00780641240999103,0.00760315917432308,0.00767760910093784,0.00804983824491501,0.00828868616372347,0.00835632346570492,0.00838267244398594,0.00835173670202494,0.00834445469081402,0.00869841128587723,0.00903261080384254,0.00948440004140139,0.0101335048675537,0.0105933053418994,0.01093390583992,0.0114309685304761,0.0124240526929498,0.0137292658910155,0.0154105601832271,0.0172457881271839,0.0194403249770403,0.0221500135958195,0.0253997482359409,0.0291951578110456,0.0333219952881336,0.0379043109714985,0.0430033355951309,0.0486023016273975,0.0546759366989136,0.060871709138155,0.0673507750034332,0.0733666941523552,0.0789741352200508,0.0838123857975006,0.0875031724572182,0.0899259448051453,0.0907698795199394,0.0888640806078911,0.0837881863117218,0.0751713737845421,0.0633560419082642,0.0487248972058296,0.0317133441567421,0.0122713400050998,-0.00922039151191711,-0.0320593938231468,-0.0557024292647839,-0.0802690237760544,-0.104994289577007,-0.129670068621635,-0.154420480132103,-0.179502665996552,-0.205695286393166,-0.233181089162827,-0.262059926986694,-0.292283445596695,-0.324550032615662,-0.358807593584061,-0.394651651382446,-0.432158946990967,-0.470699638128281,-0.509453475475311,-0.547657370567322,-0.584724605083466,-0.620348393917084,-0.654043078422546,-0.685486555099487,-0.714115023612976,-0.740202486515045,-0.763461768627167,-0.7828249335289,-0.797981262207031,-0.808102548122406,-0.81182998418808,-0.808593451976776,-0.798064529895782,-0.780262291431427,-0.75574254989624,-0.724634647369385,-0.687111020088196,-0.643568336963654,-0.595569789409637,-0.544358372688293,-0.491666406393051,-0.439758360385895,-0.389637649059296,-0.341556072235107,-0.295587480068207,-0.252235233783722,-0.21185214817524,-0.174609079957008,-0.141019642353058,-0.110745660960674,-0.0836070701479912,-0.0588609240949154,-0.0363859683275223,-0.0161303654313087,0.00164212530944496,0.0166086461395025,0.0293599609285593,0.0402288772165775,0.0492333769798279,0.0568859577178955,0.063239797949791,0.0683078542351723,0.0716380327939987,0.0735373869538307,0.0741060227155685,0.0732783451676369,0.0713497921824455,0.0683260038495064,0.0641614571213722,0.0593415908515453,0.0538401044905186,0.0478740558028221,0.041726291179657,0.0360007248818874,0.0306085273623466,0.0255185198038816,0.0208931919187307,0.0168249867856503,0.0132866865023971,0.0103381732478738,0.0080055994912982,0.00613773753866553,0.00470496108755469,0.00373128685168922,0.00280499900691211,0.00211841124109924,0.00167022703681141,0.00153686292469501,0.00144939438905567,0.0013649258762598,0.00117639452219009,0.000879157974850386,0.000664543360471725,0.000474598869914189,0.000473915919428691,0.000523139431606978,0.000438225135440007,0.000240401670453139,-7.17664734111167e-05,-0.000427568942541257,-0.000592157244682312,-0.000960268080234528,-0.00156541913747787,-0.00224788975901902,-0.00281276553869247,-0.00354513409547508,-0.00410654628649354,-0.00459623476490378,-0.0048158192075789,-0.0051396912895143,-0.00548263033851981,-0.00611647218465805,-0.00647649774327874,-0.00664773723110557,-0.00681453570723534,-0.00710039725527167,-0.00734792044386268,-0.00763568514958024,-0.00791230704635382,-0.00853763986378908,-0.00884542893618345,-0.00911209266632795,-0.0096543850377202,-0.0104118390008807,-0.0112678408622742,-0.012099121697247,-0.0127633744850755,-0.0132390772923827,-0.0137119935825467,-0.0141179310157895,-0.0143544496968389,-0.0147014046087861,-0.0150937484577298,-0.0153487892821431,-0.0154840452596545,-0.0155885182321072,-0.0157362688332796,-0.0160318333655596,-0.0166075956076384,-0.0170892085880041,-0.0175753924995661,-0.01801947504282,-0.0185653250664473,-0.01907042786479,-0.0195672586560249,-0.0200019162148237,-0.0203526373952627,-0.0205844417214394,-0.0205980557948351,-0.0206283703446388,-0.0207280442118645,-0.02090685069561,-0.021169625222683,-0.0212734062224627,-0.0214515179395676,-0.0213777963072062,-0.0213661082088947,-0.0216231066733599,-0.0221686474978924,-0.0228524282574654,-0.023343363776803,-0.0238810908049345,-0.0244667362421751,-0.0250275041908026,-0.0256260596215725,-0.0262201130390167,-0.0269643720239401,-0.0277384426444769,-0.0282822754234076,-0.0286193918436766,-0.0289428699761629,-0.0293589327484369,-0.0296860132366419,-0.0300605650991201,-0.0301194489002228,-0.0302828904241323,-0.0305456798523664,-0.0306844878941774,-0.0310236793011427,-0.0313859097659588,-0.0318706147372723,-0.0325256995856762,-0.033004317432642,-0.0335640013217926,-0.0342320278286934,-0.0352408476173878,-0.0361617803573608,-0.0369292423129082,-0.0377337299287319,-0.0382029227912426,-0.038768719881773,-0.0391599796712399,-0.0393674336373806,-0.0395882539451122,-0.0399109534919262,-0.0400978736579418,-0.0403060577809811,-0.0408432744443417,-0.0415460951626301,-0.0422364436089993,-0.0431099832057953,-0.0440283380448818,-0.0450335182249546,-0.0463276319205761,-0.0477668195962906,-0.04910684004426,-0.0503700859844685,-0.0516951195895672,-0.0528566688299179,-0.0538228861987591,-0.0548912473022938,-0.0560371726751328,-0.0573159195482731,-0.0587066113948822,-0.0599217750132084,-0.0611375980079174,-0.0624603070318699,-0.0639846920967102,-0.0656754896044731,-0.0674163550138474,-0.0692562758922577,-0.0710659027099609,-0.0728450044989586,-0.0744489729404449,-0.07602658867836,-0.0775537937879562,-0.0792882516980171,-0.0809576511383057,-0.0823978036642075,-0.0836548581719398,-0.0850176364183426,-0.0865005999803543,-0.0881717354059219,-0.0897519662976265,-0.0912542641162872,-0.0927425548434258,-0.0942112952470779,-0.0956056118011475,-0.097009189426899,-0.0986104905605316,-0.100331634283066,-0.101743757724762,-0.102951906621456,-0.103877976536751,-0.105093389749527,-0.106391914188862,-0.107674047350883,-0.108933210372925,-0.110016956925392,-0.111023299396038,-0.111976370215416,-0.112741470336914,-0.113687254488468,-0.114580519497395,-0.115389265120029,-0.115918070077896,-0.116313621401787,-0.116839803755283,-0.117465615272522,-0.118245422840118,-0.118975646793842,-0.119630858302116,-0.120314344763756,-0.120763078331947,-0.121445395052433,-0.122292384505272,-0.123126178979874,-0.124065026640892,-0.124778687953949,-0.125281617045403,-0.125446975231171,-0.125755622982979,-0.125923335552216,-0.126109406352043,-0.126132726669312,-0.125878378748894,-0.125365778803825,-0.124685145914555,-0.123823791742325,-0.122862011194229,-0.121854916214943,-0.120811335742474,-0.119422979652882,-0.117917381227016,-0.116309374570847,-0.114849768579006,-0.113283760845661,-0.11160758882761,-0.109701037406921,-0.107493728399277,-0.10514423251152,-0.102544456720352,-0.0999570712447166,-0.0973798632621765,-0.0946446508169174,-0.0914975553750992,-0.0881378799676895,-0.0846360176801682,-0.0811613649129868,-0.0778528228402138,-0.0744569972157478,-0.0708109512925148,-0.0673103034496307,-0.0637837871909142,-0.0603267103433609,-0.0568161830306053,-0.0535057261586189,-0.0502610243856907,-0.0470455996692181,-0.0436226539313793,-0.040084220468998,-0.0368315055966377,-0.0338500514626503,-0.0307972449809313,-0.0278244391083717,-0.0247791819274426,-0.0219651851803064,-0.0191410463303328,-0.0164094138890505,-0.0139245698228478,-0.0116497380658984,-0.00953473709523678,-0.00732965534552932,-0.00504753226414323,-0.00295920204371214,-0.000979887438006699,0.000931842427235097,0.00290328240953386,0.00486246915534139,0.00678481673821807,0.00869956240057945,0.0104371439665556,0.0122673949226737,0.0138029400259256,0.0150901908054948,0.0164677128195763,0.0180365983396769,0.0194460637867451,0.020748645067215,0.0219060145318508,0.0229700338095427,0.0239156056195498,0.0248761642724276,0.0255254786461592,0.0261107683181763,0.0265993308275938,0.0270120054483414,0.0270671639591455,0.0272384062409401,0.0274381935596466,0.0275913998484612,0.0278476886451244,0.0281500536948442,0.0283651929348707,0.0286990478634834,0.0293022561818361,0.0299416594207287,0.030335022136569,0.0310031417757273,0.0314121022820473,0.0315391272306442,0.0316362343728542,0.0315870046615601,0.0315688773989677,0.0315553471446037,0.0315031297504902,0.0311345867812634,0.030734620988369,0.0305526927113533,0.0302576906979084,0.0300494972616434,0.0300327278673649,0.0300101265311241,0.029942162334919,0.0297120194882154,0.0294903665781021,0.0292794536799192,0.0292955785989761,0.0293903909623623,0.0292814150452614,0.0291040148586035,0.028963927179575,0.0286719892174006,0.0283980872482061,0.0282158255577087,0.0279420297592878,0.0276344064623117,0.0273592807352543,0.0268942136317492,0.0264175906777382,0.0262445192784071,0.0260454323142767,0.0257084500044584,0.025466276332736,0.0253022182732821,0.0251018404960632,0.0251411199569702,0.0251812338829041,0.0250910688191652,0.025119362398982,0.0248398706316948,0.0243648029863834,0.0239360257983208,0.0236969739198685,0.0235910043120384,0.0232050325721502,0.0227399598807096,0.0220521297305822,0.021471444517374,0.0210447479039431,0.0205571558326483,0.0202935021370649,0.0201022401452065,0.0198194701224566,0.01948625408113,0.0188679676502943,0.0184296555817127,0.0181490480899811,0.0180217921733856,0.0176938846707344,0.0172985903918743,0.0170428100973368,0.0167881548404694,0.0164128113538027,0.0162988845258951,0.0161262303590775,0.0161216016858816,0.0159844309091568,0.0157029163092375,0.0152459694072604,0.0149261690676212,0.0145667558535933,0.0141926007345319,0.0139176454395056,0.0137678943574429,0.0134914647787809,0.0133372796699405,0.0130953527987003,0.013033414259553,0.0131513010710478,0.013488344848156,0.013699647039175,0.0139381978660822,0.0139824533835053,0.0138764437288046,0.0135119315236807,0.0130222039297223,0.0124023370444775,0.0117778228595853,0.0111254556104541,0.0103914653882384,0.00976325292140245,0.00908073224127293,0.00856487359851599,0.00805754214525223,0.0075969472527504,0.00739303976297379,0.00733329448848963,0.00729872984811664,0.00747742271050811,0.00751393288373947,0.00743521703407168,0.00717735616490245,0.00706096598878503,0.00695908442139626,0.00688171945512295,0.00681766215711832,0.00649710046127439,0.00606733467429876,0.00564453843981028,0.0051256543956697,0.00496428180485964,0.00485118851065636,0.00481750443577766,0.00479655526578426,0.00441628973931074,0.00412015058100224,0.00387564906850457,0.00400464376434684,0.00421534385532141,0.00423812866210938,0.00403518322855234,0.00351788592524827,0.00311211962252855,0.00276217982172966,0.002563331509009,0.00247450219467282,0.00236417911946774,0.00219331495463848,0.00191961706150323,0.00160973588936031,0.00145470711868256,0.00144598912447691,0.00162257964257151,0.00170129316393286,0.00166881387121975,0.00153072422835976,0.00147315626963973,0.00138911500107497,0.00130404066294432,0.00119332585018128,0.000902884581591934,0.000644153624307364,0.000594472163356841,0.000292233540676534,2.9510437372305e-20,-0.000260072236414999,-0.000541858142241836,-0.000863127876073122
0,-0.000448090810095891,-0.00105390627868474,-0.00164650718215853,-0.00213100132532418,-0.00214365078136325,-0.00226233038119972,-0.00236795959062874,-0.00256656273268163,-0.00281311431899667,-0.00299291615374386,-0.00311935134232044,-0.00291231623850763,-0.00259808311238885,-0.0024398083332926,-0.00252424040809274,-0.00284154107794166,-0.00289373635314405,-0.00285349460318685,-0.00277176010422409,-0.00268988125026226,-0.00247026444412768,-0.00228927261196077,-0.0024792852345854,-0.00264119636267424,-0.00257738563232124,-0.00248587387613952,-0.00252146692946553,-0.00288965203799307,-0.00350679433904588,-0.00426290463656187,-0.00503012863919139,-0.00600544037297368,-0.00697363587096334,-0.00801526103168726,-0.00929795112460852,-0.0107347527518868,-0.0118711525574327,-0.0129174562171102,-0.0137010524049401,-0.0141807701438665,-0.014565140940249,-0.0148823419585824,-0.0150454072281718,-0.0150554375723004,-0.0147536462172866,-0.0140256406739354,-0.0132140433415771,-0.0125568332150578,-0.0118251042440534,-0.0112763699144125,-0.0107662780210376,-0.0100297117605805,-0.00917103420943022,-0.00821228139102459,-0.00758308731019497,-0.00732408976182342,-0.00740688154473901,-0.00741360709071159,-0.00759109854698181,-0.00801292899996042,-0.00846809893846512,-0.00897475797683001,-0.0096999816596508,-0.0105511276051402,-0.0111039327457547,-0.0112507836893201,-0.0110784647986293,-0.0106985345482826,-0.010248783044517,-0.00960361678153276,-0.0085737518966198,-0.00728305615484715,-0.00590487802401185,-0.00459711812436581,-0.00348474155180156,-0.00294749555177987,-0.00253124348819256,-0.00200028135441244,-0.00111105351243168,-0.000118746735097375,0.00103765446692705,0.00216199480928481,0.00345438229851425,0.00477611646056175,0.00643846252933145,0.00861867051571608,0.0108617544174194,0.0128872413188219,0.0146199511364102,0.01577078551054,0.0166542399674654,0.0170941203832626,0.0173443481326103,0.0174369942396879,0.0172631163150072,0.0165615566074848,0.0154878031462431,0.0146314287558198,0.0141584100201726,0.0139169422909617,0.013823407702148,0.0137451160699129,0.0138709042221308,0.0140559282153845,0.0142973801121116,0.0148269524797797,0.015414354391396,0.0157301686704159,0.0155022190883756,0.0145377088338137,0.0131042003631592,0.0115715730935335,0.0099936667829752,0.00850780867040157,0.0071388348005712,0.0054434915073216,0.00359740108251572,0.00208850181661546,0.00107810599729419,0.000601421284954995,0.000628766661975533,0.000875395315233618,0.00124329829122871,0.00177183619234711,0.00231904350221157,0.00275296135805547,0.00363774783909321,0.00452942075207829,0.00536779407411814,0.00603120680898428,0.00654919538646936,0.00713543128222227,0.00769880460575223,0.00806114915758371,0.00812557153403759,0.00786863453686237,0.00744355143979192,0.00689097447320819,0.00641037942841649,0.0060192784294486,0.00555550679564476,0.00500678876414895,0.00419750809669495,0.0031776730902493,0.00234856246970594,0.00198585283942521,0.00191487336996943,0.00199984712526202,0.00209162826649845,0.00212819501757622,0.00206303643062711,0.00206425017677248,0.0022271703928709,0.00254855467937887,0.00301240454427898,0.00316698965616524,0.00295039196498692,0.00251428573392332,0.00212918501347303,0.00167506607249379,0.00136456091422588,0.00106802303344011,0.000794780149590224,0.000351721566403285,-0.000245296076172963,-0.000665981555357575,-0.000799569417722523,-0.000973348272964358,-0.00123123126104474,-0.00154832063708454,-0.00191898958291858,-0.00222456641495228,-0.00254074926488101,-0.00280631263740361,-0.00303801777772605,-0.00326114147901535,-0.00329554569907486,-0.00304666045121849,-0.0021955743432045,-0.000554454803932458,0.00191547349095345,0.00523545639589429,0.00935153383761644,0.0143523579463363,0.0202655531466007,0.0268039461225271,0.0339296013116837,0.0411859340965748,0.0480900555849075,0.0544781088829041,0.0601668916642666,0.0647381097078323,0.0677623301744461,0.0693832412362099,0.0700140222907066,0.0695539340376854,0.0674121752381325,0.0636643767356873,0.0581864938139915,0.0512653030455112,0.0434504225850105,0.0351746901869774,0.0264198333024979,0.0175528172403574,0.00769365346059203,-0.00348570942878723,-0.0155959026888013,-0.0282733831554651,-0.0415634997189045,-0.0551692992448807,-0.0698356702923775,-0.0865209475159645,-0.105938047170639,-0.127831354737282,-0.151703685522079,-0.176763668656349,-0.202524438500404,-0.228850215673447,-0.254964113235474,-0.278306871652603,-0.297319859266281,-0.310833781957626,-0.319119334220886,-0.323660582304001,-0.324280828237534,-0.32051008939743,-0.312121450901031,-0.299911051988602,-0.284576445817947,-0.266428500413895,-0.247465804219246,-0.229087263345718,-0.212030023336411,-0.195613607764244,-0.178447097539902,-0.16103383898735,-0.144725367426872,-0.130092084407806,-0.116782002151012,-0.104656703770161,-0.0935361012816429,-0.0842086747288704,-0.0768861323595047,-0.0711836814880371,-0.0669655874371529,-0.0636225119233131,-0.0609632320702076,-0.0586549304425716,-0.0564798563718796,-0.0545913688838482,-0.0527365244925022,-0.0509023740887642,-0.0486754216253757,-0.0462812818586826,-0.043553251773119,-0.0406901389360428,-0.0381288751959801,-0.0359970107674599,-0.0339405611157417,-0.0320733562111855,-0.0301553383469582,-0.0282357968389988,-0.0262982286512852,-0.0246708784252405,-0.0231762528419495,-0.0217789299786091,-0.020316431298852,-0.0186963155865669,-0.0168792139738798,-0.0151381632313132,-0.0133804241195321,-0.0117572294548154,-0.0102316197007895,-0.00897932797670364,-0.00747990002855659,-0.00614027446135879,-0.00516150100156665,-0.00446715764701366,-0.0039266743697226,-0.00338318757712841,-0.00274401530623436,-0.00214696419425309,-0.00153387151658535,-0.00102928036358207,-0.000734927773009986,-0.000590422481764108,-0.000247135147219524,0.000249580800300464,0.000765116245020181,0.00130360329058021,0.00163380056619644,0.00202681124210358,0.00251569971442223,0.00299385073594749,0.0033232681453228,0.00381810707040131,0.00395123427733779,0.00382316368632019,0.00349911046214402,0.00333710643462837,0.00308945286087692,0.00315014645457268,0.00315174204297364,0.00307578477077186,0.0029376894235611,0.0030134420376271,0.0031941223423928,0.00360089656896889,0.00415198272094131,0.0048870244063437,0.00540693989023566,0.00590139767155051,0.00651972973719239,0.00712265213951468,0.00795994326472282,0.00882195960730314,0.0093183284625411,0.00940399710088968,0.00929269846528769,0.00911521445959806,0.00897398125380278,0.00892206188291311,0.0088913356885314,0.00873157661408186,0.00855843815952539,0.00814973935484886,0.00763118779286742,0.00763066345825791,0.00801576767116785,0.0083618676289916,0.00863679964095354,0.00882067158818245,0.00896936003118753,0.00915879756212234,0.00942308828234673,0.00948321539908648,0.00936094578355551,0.00929100811481476,0.00884001050144434,0.008572056889534,0.0085010826587677,0.00861731171607971,0.00891591235995293,0.00910716783255339,0.00942383334040642,0.0095262611284852,0.00963323190808296,0.0100707681849599,0.010619267821312,0.0112958624958992,0.0114994673058391,0.0117894420400262,0.0120315020903945,0.0122318537905812,0.0125941783189774,0.0128944143652916,0.0133107723668218,0.0137639092281461,0.0139812035486102,0.0141388764604926,0.0142435962334275,0.0145886549726129,0.0148229515179992,0.0150763494893909,0.0150461681187153,0.0150445876643062,0.0150768375024199,0.015166481025517,0.0157215837389231,0.0161870550364256,0.0167298000305891,0.0174350906163454,0.0180505197495222,0.0187846273183823,0.0196101441979408,0.0207607056945562,0.0218659788370132,0.0226586535573006,0.0232811216264963,0.0233732927590609,0.0237683746963739,0.0241382289677858,0.0244255643337965,0.0247661229223013,0.025071369484067,0.0252460744231939,0.0253329332917929,0.0255568232387304,0.0261477921158075,0.0268178191035986,0.027704156935215,0.0285456869751215,0.0293669644743204,0.0302322413772345,0.0310190096497536,0.0317717902362347,0.0324681662023067,0.0331027768552303,0.0334347635507584,0.0336291678249836,0.03378801420331,0.0340690612792969,0.0344170145690441,0.0346530228853226,0.0347316600382328,0.034809622913599,0.0347807146608829,0.0350161977112293,0.0354847796261311,0.0361696444451809,0.0367554351687431,0.0374381095170975,0.0379515513777733,0.0382406264543533,0.0386892333626747,0.0391216613352299,0.0398129187524319,0.0405026488006115,0.0408223606646061,0.0408591143786907,0.0409232936799526,0.0410670340061188,0.0413555465638638,0.0416017584502697,0.0418593548238277,0.041864600032568,0.0418894030153751,0.041788887232542,0.041812252253294,0.0421705693006516,0.0425422526896,0.0426902398467064,0.0427758805453777,0.0426775254309177,0.0428890623152256,0.0432172529399395,0.0436949841678143,0.0441291220486164,0.0442725904285908,0.0442937090992928,0.0441683493554592,0.0440977588295937,0.0441794730722904,0.0441804714500904,0.0439331084489822,0.043366402387619,0.0427332185208797,0.0422357358038425,0.0417717956006527,0.0414867661893368,0.0410515852272511,0.0404916517436504,0.0398368649184704,0.0388841517269611,0.0380308069288731,0.0373456738889217,0.0367403216660023,0.0360965318977833,0.0350786335766315,0.0338719822466373,0.0325368233025074,0.0314578488469124,0.0302535090595484,0.0290973838418722,0.0278376843780279,0.0264561306685209,0.0250665154308081,0.023511977866292,0.0221381708979607,0.0209979955106974,0.019903102889657,0.0188446845859289,0.0174652356654406,0.0161364320665598,0.0148434499278665,0.0138015821576118,0.0127995060756803,0.0116412835195661,0.0103805242106318,0.00875467248260975,0.00713784620165825,0.00570470048114657,0.00425917748361826,0.00300321378745139,0.00177210860420018,0.000353622861439362,-0.00111861655022949,-0.00251526082865894,-0.00360617414116859,-0.00439713336527348,-0.00503422738984227,-0.00582059193402529,-0.0066191996447742,-0.0073919240385294,-0.00796774961054325,-0.00829037744551897,-0.00834699813276529,-0.00820302963256836,-0.00802176538854837,-0.00823222286999226,-0.00866012088954449,-0.00904080830514431,-0.00929326470941305,-0.00934119708836079,-0.00926937814801931,-0.00932485517114401,-0.00941184628754854,-0.00955528020858765,-0.0097246328368783,-0.00954152178019285,-0.00903575215488672,-0.00815714336931705,-0.00725503778085113,-0.00640905881300569,-0.00562370382249355,-0.00474761333316565,-0.00387252611108124,-0.00313747837208211,-0.00268101925030351,-0.00239456701092422,-0.00244863447733223,-0.00254669901914895,-0.00281842867843807,-0.00291877775453031,-0.00293450360186398,-0.003059710143134,-0.0033930535428226,-0.00355289946310222,-0.00361987785436213,-0.00336598185822368,-0.0030056822579354,-0.00269724708050489,-0.00244041322730482,-0.00222848146222532,-0.0020805795211345,-0.00182965025305748,-0.0016546119004488,-0.00117125024553388,-0.00097130675567314,-0.000809403136372566,-0.000827249779831618,-0.000808593526016921,-0.000743864744435996,-0.000699778378475457,-0.000736725807655603,-0.00103699171449989,-0.00143422873225063,-0.00161141960415989,-0.00204652291722596,-0.00214153528213501,-0.00218556076288223,-0.00225950661115348,-0.00234662066213787,-0.00246921484358609,-0.00252062757499516,-0.00241097738035023,-0.00215156679041684,-0.00179040932562202,-0.00167730392422527,-0.00161068828310817,-0.00179017952177674,-0.00197800318710506,-0.00203848932869732,-0.00207775272428989,-0.00194627733435482,-0.00193947495426983,-0.00205510598607361,-0.00227661500684917,-0.0026191882789135,-0.00263288314454257,-0.00251524616032839,-0.00236029922962189,-0.00215745088644326,-0.00200315262190998,-0.00195695902220905,-0.00186914019286633,-0.00168197287712246,-0.00139573216438293,-0.000966507301200181,-0.000682010606396943,-0.000892964832019061,-0.000996766262687743,-0.00103871233295649,-0.00118560518603772,-0.00138754525687546,-0.00149264233186841,-0.00175757938995957,-0.00202168640680611,-0.00234948541037738,-0.00269199465401471,-0.00274303508922458,-0.00259015150368214,-0.00259072543121874,-0.00266790902242064,-0.00274517852813005,-0.00263636559247971,-0.00247348425909877,-0.00213385745882988,-0.00195342232473195,-0.0018853343790397,-0.00187813956290483,-0.00211309269070625,-0.00220907176844776,-0.0022633895277977,-0.00223498721607029,-0.00202556839212775,-0.00183592608664185,-0.00182149803731591,-0.00192005501594394,-0.00181975995656103,-0.00145393202546984,-0.00108175782952458,-0.000575292855501175,-0.000189513593795709,-7.49882310628891e-05,-1.91908329725266e-05,7.14634879841469e-05,0.0002959119156003,0.000642351806163788,0.0010131107410416,0.0012546805664897,0.00125688500702381,0.00124435068573803,0.00119784660637379,0.00120996253099293,0.00156148709356785,0.00183550443034619,0.00188861321657896,0.00165562285110354,0.00133612297940999,0.00116919633001089,0.00120944704394788,0.00147669797297567,0.00188257172703743,0.00227134930901229,0.0027345425914973,0.00300593650899827,0.00321377580985427,0.00348355062305927,0.0037254726048559,0.00381918856874108,0.00348601071164012,0.00316510908305645,0.00274453405290842,0.00226590223610401,0.00183400791138411,0.00119271385483444,0.000628997688181698,0.000157046088133939,-0.00036798240034841,-0.000569107301998883,-0.000419372314354405,-4.92784492962528e-05,0.000129365871543996,5.61848100915086e-05,-0.000125648264656775,-0.000161005416885018,7.98035543994047e-05,0.00034457549918443,0.000682900950778276,0.00085855508223176,0.000526131188962609,0.000108818370790686,-0.00029566849116236,-0.000620837148744613,-0.000439732015365735,-0.000107916806882713,9.20061302167596e-06,-0.000166023804922588,-0.000392710353480652,-0.000540977402124554,-0.000249136472120881,0.000394189468352124,0.000949295528698713,0.00122731004375964,0.0013900805497542,0.00139653508085757,0.00138149573467672,0.00150566664524376,0.00166017143055797,0.00184507702942938,0.00191849947441369,0.00173873000312597,0.00141135149169713,0.0012524303747341,0.00124865095131099,0.00147218035999686,0.00150989613030106,0.00132138654589653,0.000865508511196822,0.000450574676506221,0.000255416467553005,0.000158552313223481,4.403198545333e-06,6.37828852632083e-05,2.9510437372305e-20,3.49622496287338e-05,-8.49568023113534e-05,-0.000111192028271034
