-0.0029398500919342,-0.00165180012118071,0.000763049931265414,0.00432910025119781,0.00904280133545399,0.0144809000194073,0.0199231989681721,0.0263188984245062,0.0331660993397236,0.0396979488432407,0.0448760502040386,0.0484062023460865,0.0507170036435127,0.0518564507365227,0.0515296012163162,0.0503466501832008,0.0496560484170914,0.0496322996914387,0.0493187010288239,0.0487161502242088,0.0487736985087395,0.0492640994489193,0.0487030521035194,0.0461488515138626,0.0413707494735718,0.0337277986109257,0.0221846457570791,0.00649760477244854,-0.012877793982625,-0.0363451465964317,-0.0649543553590775,-0.0979905650019646,-0.132908716797829,-0.167482763528824,-0.200344294309616,-0.230993792414665,-0.259628087282181,-0.286444783210754,-0.311257809400558,-0.332654923200607,-0.348458558320999,-0.358411639928818,-0.364154398441315,-0.366443514823914,-0.364926636219025,-0.360013008117676,-0.352843761444092,-0.343296140432358,-0.329958498477936,-0.312026023864746,-0.289724141359329,-0.264105021953583,-0.236827880144119,-0.209480449557304,-0.18317899107933,-0.157649666070938,-0.131633341312408,-0.105425015091896,-0.0809817612171173,-0.0598141439259052,-0.0424624979496002,-0.0285121016204357,-0.0169514454901218,-0.00759110786020756,-0.0011133961379528,0.00214984454214573,0.00247959746047854,0.000598750251810998,-0.00272965314798057,-0.00814009737223387,-0.0172346495091915,-0.0294259004294872,-0.04194675385952,-0.0530492998659611,-0.0624034479260445,-0.0694977045059204,-0.0735655054450035,-0.0748971030116081,-0.0746329501271248,-0.072625994682312,-0.0676121488213539,-0.0600292980670929,-0.0520210973918438,-0.0446282960474491,-0.0375375002622604,-0.0308798030018806,-0.0253392495214939,-0.0207807999104261,-0.0162863489240408,-0.0116691514849663,-0.00755685055628419,-0.00421215128153563,-0.00139239989221096,0.00102889956906438,0.00300334906205535,0.004691400565207,0.00640149926766753,0.00796000007539988,0.00882830005139112,0.00920210033655167,0.00992405042052269,0.0110406503081322,0.011782449670136,0.0119305998086929,0.0119423000141978,0.0120860999450088,0.0123436003923416,0.012881750240922,0.0139976004138589,0.0154210506007075,0.0164391994476318,0.0170846506953239,0.0180993005633354,0.0195977985858917,0.0209494009613991,0.0216421000659466,0.0214815996587276,0.0205227006226778,0.019038949161768,0.0174716506153345,0.0162842497229576,0.0154394498094916,0.0145049002021551,0.0136038493365049,0.0133915999904275,0.0140110999345779,0.0150335999205709,0.0162670500576496,0.0178153999149799,0.0195074491202831,0.0209074504673481,0.0219224505126476,0.0227895509451628,0.0234179999679327,0.0234179999679327,0.0228762999176979,0.0223460495471954,0.022027300670743,0.0216858014464378,0.0211475491523743,0.0204041507095098,0.0195429995656013,0.0187149494886398,0.0180741492658854,0.0177343003451824,0.0176494996994734,0.0176309999078512,0.0175330992788076,0.0173172000795603,0.017119349911809,0.0172012001276016,0.0176834501326084,0.0184821002185345,0.0193162001669407,0.0197965502738953,0.0197758991271257,0.0193595997989178,0.0186021495610476,0.0174987502396107,0.0162588004022837,0.015260050073266,0.0145960506051779,0.0140888495370746,0.0137955006211996,0.0140137504786253,0.0147955510765314,0.0159437004476786,0.0174825508147478,0.0195809490978718,0.0217727497220039,0.0230861995369196,0.023336598649621,0.023165849968791,0.0229080505669117,0.0224340502172709,0.0216658990830183,0.0206636004149914,0.0194564014673233,0.0180412996560335,0.0165447499603033,0.0152167994529009,0.0142458993941545,0.013680350035429,0.0133014004677534,0.0127345994114876,0.0120251001790166,0.0116303507238626,0.0118142999708652,0.0125414002686739,0.0136562502011657,0.0149396508932114,0.0161529500037432,0.0170987993478775,0.0178140997886658,0.0185163021087646,0.0191942006349564,0.0195786003023386,0.0194416996091604,0.0187215488404036,0.0177256986498833,0.0170114003121853,0.0167009010910988,0.0165069010108709,0.0165190994739532,0.0171693507581949,0.018300898373127,0.019226148724556,0.019879499450326,0.0208337511867285,0.0222104005515575,0.0235878005623817,0.0247267484664917,0.0256238989531994,0.0260025002062321,0.0254145972430706,0.0241612493991852,0.0231822486966848,0.0226970501244068,0.0221608988940716,0.0214495994150639,0.0209268480539322,0.0205290019512177,0.0198175497353077,0.0191077999770641,0.0193484500050545,0.0205154530704021,0.0216249488294125,0.0223896987736225,0.0232997983694077,0.0242810994386673,0.0247265994548798,0.0249590016901493,0.0260908491909504,0.0279957503080368,0.0293528512120247,0.0298495013266802,0.0303032491356134,0.0309514999389648,0.0313319005072117,0.0315205492079258,0.0321192517876625,0.0329696983098984,0.0332079455256462,0.0327720493078232,0.0324681997299194,0.0327304005622864,0.033440850675106,0.0344479978084564,0.0356486961245537,0.0367991998791695,0.03758554905653,0.0380947515368462,0.0387453511357307,0.0395351015031338,0.0400172993540764,0.0399533994495869,0.0394160971045494,0.0385491512715816,0.0375192537903786,0.0365663506090641,0.0359247513115406,0.0354594998061657,0.0347563028335571,0.0338468477129936,0.0332375504076481,0.0332998558878899,0.0341119989752769,0.0354361049830914,0.0368255451321602,0.0380716025829315,0.0392691045999527,0.0406312048435211,0.0423412993550301,0.0441504493355751,0.0454507544636726,0.0459755547344685,0.0458783991634846,0.0453535988926888,0.0445604510605335,0.0437043011188507,0.0429882518947124,0.0423371493816376,0.041482899338007,0.0405765026807785,0.0401393473148346,0.0402571484446526,0.0405580028891563,0.0409291498363018,0.0415464043617249,0.0422737002372742,0.0426789969205856,0.04269640147686,0.0426531508564949,0.042715348303318,0.0427875518798828,0.0426618531346321,0.0421010963618755,0.0410211011767387,0.0395247489213943,0.0378607027232647,0.0363467559218407,0.0351114496588707,0.0340691469609737,0.0330808460712433,0.032008945941925,0.030774200335145,0.0294183976948261,0.0282977037131786,0.0279274992644787,0.0281617995351553,0.0282297022640705,0.0276979990303516,0.0266198515892029,0.0251690968871117,0.0235818531364202,0.0222929529845715,0.0217617973685265,0.0216395519673824,0.0209260992705822,0.0194306503981352,0.0178603008389473,0.0167155023664236,0.0160772986710072,0.0158599503338337,0.0158618502318859,0.0157155506312847,0.0150146018713713,0.0138705503195524,0.0128443520516157,0.0121158976107836,0.0114448014646769,0.0108376480638981,0.0105558494105935,0.0104775503277779,0.0101050511002541,0.00923555158078671,0.00804870016872883,0.00678904913365841,0.00565544981509447,0.00468234904110432,0.00374260079115629,0.00268599903210998,0.00142675032839179,0.000151900574564934,-0.000745699740946293,-0.00115409912541509,-0.0012671509757638,-0.00120225036516786,-0.000942149432376027,-0.000491198385134339,8.85010231286287e-05,0.000684550730511546,0.00114850047975779,0.00134919979609549,0.00123090017586946,0.000999800977297127,0.00100200006272644,0.00105119938962162,0.000519949302542955,-0.000619849830400199,-0.00177579885348678,-0.002688700100407,-0.00352690066210926,-0.00431134924292564,-0.00486200023442507,-0.00515834940597415,-0.00532235018908978,-0.00518940016627312,-0.00438630022108555,-0.00306890066713095,-0.00186750013381243,-0.000930199981667101,8.7950611487031e-05,0.00111149961594492,0.00162575009744614,0.00151495018508285,0.00110184983350337,0.000470599858090281,-0.000569499796256423,-0.00195184955373406,-0.00336130033247173,-0.00480045005679131,-0.00651200022548437,-0.00809920020401478,-0.00866459961980581,-0.00824839994311333,-0.00777210015803576,-0.00738169951364398,-0.0064109000377357,-0.00489574996754527,-0.00360910012386739,-0.00268859998323023,-0.00162294995971024,-0.00057204975746572,-0.000318350037559867,-0.000751350075006485,-0.000930999871343374,-0.000851500313729048,-0.00141564989462495,-0.00256875017657876,-0.00329605001024902,-0.00348090031184256,-0.00392265012487769,-0.00455120019614697,-0.00442095007747412,-0.00347090023569763,-0.00256554991938174,-0.00189810013398528,-0.000920050079002976,0.000347299966961145,0.00127664976753294,0.00180665007792413,0.00245735002681613,0.00322155002504587,0.00352849997580051,0.00321134994737804,0.00257480004802346,0.00170160015113652,0.0004205999430269,-0.00112700008321553,-0.00249969959259033,-0.0035732495598495,-0.00455725006759167,-0.00544449919834733,-0.005978649482131,-0.00608275039121509,-0.00589830009266734,-0.00552054960280657,-0.00494975037872791,-0.00416544964537024,-0.00315164984203875,-0.00192010006867349,-0.000543799949809909,0.000737900147214532,0.00158744980581105,0.00195329985581338,0.00207584979943931,0.00213530007749796,0.00217915000393987,0.00218884996138513,0.00209175003692508,0.00173945014830679,0.000976099981926382,-7.43998680263758e-05,-0.00103659997694194,-0.0016864996869117,-0.00201819976791739,-0.00211314996704459,-0.00209139962680638,-0.00205114996060729,-0.00202899985015392,-0.0018990496173501,-0.00147505011409521,-0.00101779995020479,-0.00113474985118955,-0.00186940003186464,-0.00268639996647835,-0.00331820035353303,-0.00386629998683929,-0.00435495004057884,-0.00467624980956316,-0.00481994962319732,-0.00485284999012947,-0.00460965000092983,-0.00378309981897473,-0.0025972998701036,-0.00173080002423376,-0.00133819994516671,-0.00100455014035106,-0.000541500165127218,-9.8000280559063e-05,0.000197899993509054,0.000302499975077808,0.000157249975018203,-0.000276200007647276,-0.000774600193835795,-0.000953350099734962,-0.000910400063730776,-0.00116460013668984,-0.00176905025728047,-0.002298149978742,-0.00268405023962259,-0.00323850032873452,-0.00390360015444458,-0.00425450038164854,-0.00426055025309324,-0.00429015001282096,-0.00437394995242357,-0.0041897501796484,-0.00373925035819411,-0.0033709998242557,-0.00319704995490611,-0.00303120003081858,-0.00272494996897876,-0.0022724000737071,-0.00189159996807575,-0.00151090009603649,-0.00107944989576936,-0.000755350047256798,-0.000637849909253418
0.00140205025672913,0.0069943000562489,0.0140347508713603,0.0223524998873472,0.0323738977313042,0.0438324995338917,0.0557752028107643,0.0695390030741692,0.0832927972078323,0.0958058461546898,0.106247447431087,0.114334300160408,0.12023900449276,0.124077245593071,0.125980496406555,0.126896843314171,0.128433644771576,0.131431505084038,0.135800004005432,0.141286939382553,0.147541999816895,0.153595492243767,0.158021956682205,0.160111755132675,0.159659653902054,0.154953703284264,0.142837047576904,0.120966203510761,0.0880796015262604,0.0428123474121094,-0.0159060508012772,-0.0860714539885521,-0.163065627217293,-0.244277358055115,-0.329332530498505,-0.416397660970688,-0.502052426338196,-0.584473192691803,-0.663204908370972,-0.735057711601257,-0.79465264081955,-0.840708196163177,-0.876320123672485,-0.903795838356018,-0.923856198787689,-0.937607765197754,-0.94647479057312,-0.949960052967072,-0.946069896221161,-0.935262143611908,-0.920533180236816,-0.903818726539612,-0.885340571403503,-0.864585101604462,-0.840709805488586,-0.813185811042786,-0.782072782516479,-0.748469352722168,-0.714214205741882,-0.680229544639587,-0.646387815475464,-0.612628400325775,-0.579236507415771,-0.546841204166412,-0.516242623329163,-0.487718045711517,-0.460889011621475,-0.43487685918808,-0.40875256061554,-0.383177995681763,-0.360026061534882,-0.339219391345978,-0.318713128566742,-0.297586411237717,-0.276360541582108,-0.255186706781387,-0.233769580721855,-0.212880700826645,-0.194136247038841,-0.177593395113945,-0.161780253052711,-0.146214097738266,-0.131626605987549,-0.118345201015472,-0.106119692325592,-0.0950442031025887,-0.0854944437742233,-0.0769522041082382,-0.0681282430887222,-0.0586334466934204,-0.0491533502936363,-0.0404775515198708,-0.0331657975912094,-0.0271789990365505,-0.0219357516616583,-0.0169036015868187,-0.0118011012673378,-0.00681420043110847,-0.00245400052517653,0.001227798871696,0.00463815033435822,0.00785165000706911,0.0105681493878365,0.012729600071907,0.014571400359273,0.0162090007215738,0.0176141001284122,0.0189351495355368,0.0204785000532866,0.0223154500126839,0.024285800755024,0.0264052506536245,0.0288501009345055,0.0314889997243881,0.0338841006159782,0.0357615984976292,0.0370799005031586,0.0378268994390965,0.0380075499415398,0.0377929508686066,0.0374819524586201,0.0372042506933212,0.0369435995817184,0.0369315482676029,0.0375939011573792,0.0389394015073776,0.0405723005533218,0.0423533469438553,0.0444523021578789,0.0468980520963669,0.049523152410984,0.0521832518279552,0.0547589473426342,0.0569386966526508,0.0583207011222839,0.0590452998876572,0.0597342476248741,0.0606161020696163,0.0614438019692898,0.0620389506220818,0.0624037533998489,0.0626274049282074,0.0628630518913269,0.0633276477456093,0.06424929946661,0.0656490996479988,0.0673187002539635,0.0689475014805794,0.0702285021543503,0.0711570531129837,0.0720170959830284,0.0730310529470444,0.0742575973272324,0.0755332037806511,0.0765263512730598,0.0770144984126091,0.0769549980759621,0.0764927491545677,0.0759186521172523,0.0754937008023262,0.075395256280899,0.0756768509745598,0.0763164460659027,0.0774507969617844,0.0793157517910004,0.0817753523588181,0.0843987986445427,0.0872410535812378,0.0907620489597321,0.0947261527180672,0.0982230007648468,0.100852496922016,0.102851651608944,0.104417644441128,0.105588652193546,0.106441102921963,0.10711869597435,0.107747003436089,0.108383998274803,0.108904354274273,0.109116300940514,0.109342895448208,0.110284052789211,0.111883401870728,0.113379403948784,0.114642098546028,0.116238549351692,0.118356600403786,0.120722398161888,0.123349450528622,0.126538649201393,0.130128055810928,0.133516207337379,0.136506408452988,0.139364808797836,0.142212405800819,0.144907414913177,0.147186398506165,0.148820549249649,0.150098904967308,0.151699900627136,0.153692603111267,0.155598402023315,0.157634600996971,0.160656958818436,0.164683997631073,0.16888265311718,0.172986805438995,0.177401661872864,0.182200193405151,0.187032103538513,0.191762745380402,0.19646018743515,0.200701311230659,0.203729689121246,0.20577734708786,0.207991749048233,0.210820242762566,0.213864505290985,0.216915994882584,0.220094248652458,0.223370507359505,0.226610153913498,0.230227306485176,0.234998449683189,0.240670248866081,0.246088653802872,0.251108705997467,0.256596297025681,0.262521684169769,0.267955303192139,0.272951990365982,0.278526246547699,0.284665942192078,0.290331244468689,0.295437008142471,0.300874263048172,0.306613802909851,0.311707884073257,0.316190958023071,0.321082532405853,0.326497286558151,0.331599742174149,0.336309164762497,0.341371178627014,0.346940219402313,0.352511346340179,0.358071684837341,0.364104986190796,0.370467692613602,0.37639045715332,0.381610840559006,0.386456727981567,0.391046106815338,0.395219504833221,0.399064779281616,0.402883499860764,0.406526237726212,0.409462571144104,0.411722928285599,0.413909643888474,0.416299492120743,0.418729096651077,0.42103835940361,0.42320904135704,0.425479769706726,0.428265511989594,0.431722909212112,0.435686856508255,0.43984580039978,0.44386500120163,0.447700411081314,0.451546102762222,0.455310344696045,0.458603352308273,0.461213678121567,0.463170796632767,0.464523613452911,0.465329736471176,0.465843975543976,0.466453552246094,0.467230647802353,0.467957705259323,0.468671381473541,0.469652235507965,0.47083654999733,0.471819400787354,0.472453951835632,0.472907215356827,0.47328308224678,0.473513573408127,0.473302900791168,0.472239434719086,0.470301538705826,0.467853963375092,0.465125054121017,0.462098211050034,0.458597093820572,0.454368948936462,0.449332416057587,0.443641662597656,0.437695354223251,0.432001650333405,0.426629364490509,0.421159356832504,0.41504442691803,0.407876878976822,0.400103807449341,0.392819702625275,0.386219203472137,0.379527926445007,0.372270613908768,0.364468067884445,0.356157302856445,0.347373753786087,0.338557869195938,0.330373227596283,0.322568148374557,0.314098626375198,0.304758846759796,0.295265197753906,0.285960614681244,0.276676416397095,0.267473250627518,0.258655846118927,0.250092446804047,0.241263002157211,0.232135355472565,0.223175048828125,0.214509293437004,0.205902203917503,0.197491243481636,0.189743548631668,0.182545349001884,0.175214245915413,0.167458355426788,0.15951669216156,0.1517603546381,0.14449605345726,0.13758185505867,0.13053560256958,0.123356200754642,0.116543650627136,0.110353402793407,0.104694701731205,0.0994651019573212,0.0946143493056297,0.0900695472955704,0.0857776552438736,0.0819512009620667,0.0789349973201752,0.0764243453741074,0.073547400534153,0.0699779018759727,0.0660670027136803,0.0622593015432358,0.05886559933424,0.0557332001626492,0.0523304492235184,0.0484145507216454,0.0441384017467499,0.0398152023553848,0.0358069017529488,0.0323146507143974,0.0293503999710083,0.0268333498388529,0.0246507506817579,0.0228065010160208,0.0214157998561859,0.0205328986048698,0.020116500556469,0.0200603008270264,0.0201955512166023,0.0202696993947029,0.0199802499264479,0.019131850451231,0.0176868494600058,0.0158104002475739,0.0137866996228695,0.0116381496191025,0.00914240069687366,0.00628255028277636,0.00335359992459416,0.000940500001888722,-0.000296000041998923,-0.000453400076366961,-0.000280700158327818,8.14000377431512e-05,0.00112760008778423,0.00284154992550611,0.00463930005207658,0.00628890004009008,0.00793964974582195,0.00931455008685589,0.00979754980653524,0.00958504993468523,0.00957710016518831,0.00978779979050159,0.00936564989387989,0.00825574994087219,0.00726884976029396,0.00669270008802414,0.00618615001440048,0.00575000001117587,0.00576425017789006,0.00617460021749139,0.00649855006486177,0.00666800001636147,0.0070506501942873,0.00769700016826391,0.00827225018292665,0.00853794999420643,0.00847034994512796,0.00825014989823103,0.00816900003701448,0.00826365035027266,0.00829739961773157,0.00805140007287264,0.00743209989741445,0.0066101998090744,0.00595170026645064,0.00560445012524724,0.00546084996312857,0.00542300008237362,0.00546315032988787,0.00559594994410872,0.00586090050637722,0.00627584988251328,0.00684885028749704,0.00767205003648996,0.0088960500434041,0.0105355996638536,0.0124006997793913,0.0140147004276514,0.0147853493690491,0.0147727997973561,0.0146482503041625,0.0147662004455924,0.0150017496198416,0.015031149610877,0.0144962500780821,0.0133822504431009,0.0120340995490551,0.0108447996899486,0.0101199001073837,0.00985249970108271,0.00976529996842146,0.00970065034925938,0.00968789961189032,0.00981354992836714,0.0101490002125502,0.0105859497562051,0.010844049975276,0.0106642004102468,0.00990565028041601,0.00873680040240288,0.0075570996850729,0.00649699987843633,0.0054113999940455,0.00436295010149479,0.00365115003660321,0.00344805000349879,0.00373564986512065,0.00441605038940907,0.00533460034057498,0.00626219995319843,0.00695350021123886,0.00739310029894114,0.007778350263834,0.00819970015436411,0.0085760997608304,0.00871879979968071,0.00842639990150928,0.00780795002356172,0.00724389962852001,0.00690759997814894,0.00669645005837083,0.00643610022962093,0.00596409989520907,0.00526244984939694,0.00446334993466735,0.00373754999600351,0.00323579995892942,0.0029660000000149,0.00280030001886189,0.00262785004451871,0.00240604998543859,0.00221375003457069,0.00220425007864833,0.00236235000193119,0.00249810004606843,0.00246064993552864,0.00220030010677874,0.0017999499104917,0.00143379997462034,0.0011680000461638,0.0010511000873521,0.00106285000219941,0.00103695003781468,0.000843450019601732
0.0043188501149416,0.00861569959670305,0.0140063492581248,0.0203738994896412,0.0277729984372854,0.0360114984214306,0.0447190999984741,0.0543588027358055,0.0646589994430542,0.0754924491047859,0.0867386534810066,0.0984250009059906,0.110712498426437,0.12369604408741,0.137514695525169,0.152993857860565,0.171594247221947,0.194574907422066,0.222705990076065,0.255959540605545,0.293509095907211,0.334033697843552,0.376161754131317,0.419934540987015,0.466288536787033,0.513518035411835,0.557313024997711,0.594447791576385,0.623326420783997,0.642480432987213,0.650604367256165,0.648204624652863,0.637310206890106,0.618669033050537,0.59186840057373,0.55861622095108,0.522335410118103,0.483256250619888,0.438858091831207,0.390542358160019,0.343585550785065,0.300277531147003,0.259038388729095,0.217746660113335,0.174543902277946,0.127723097801208,0.0760451406240463,0.0201158300042152,-0.0382470935583115,-0.099922738969326,-0.167962968349457,-0.241589561104774,-0.315831393003464,-0.386071443557739,-0.449171811342239,-0.503422260284424,-0.548188924789429,-0.582557678222656,-0.605179786682129,-0.615012764930725,-0.611890316009521,-0.598059713840485,-0.577817559242249,-0.554517805576324,-0.529929637908936,-0.504659295082092,-0.478440314531326,-0.45087194442749,-0.421727240085602,-0.391445219516754,-0.360967546701431,-0.33059549331665,-0.300018936395645,-0.269578009843826,-0.24024486541748,-0.212291702628136,-0.185373693704605,-0.160192504525185,-0.138368651270866,-0.120265603065491,-0.104844138026237,-0.0912504941225052,-0.0791101977229118,-0.0681132972240448,-0.0579751953482628,-0.0486968979239464,-0.0404552482068539,-0.0329043045639992,-0.0252437498420477,-0.0171925500035286,-0.00913734920322895,-0.00175544898957014,0.00426610000431538,0.00897639989852905,0.0131169501692057,0.0172013007104397,0.021331999450922,0.0253889001905918,0.0291391015052795,0.0324879996478558,0.0354776494204998,0.0380289480090141,0.0399697497487068,0.0414028987288475,0.0426765009760857,0.0438994988799095,0.0449410006403923,0.045915849506855,0.0471813008189201,0.048836350440979,0.0506986975669861,0.0527112483978271,0.0549516007304192,0.0572685971856117,0.0593028999865055,0.0609327964484692,0.0622843019664288,0.0633189976215363,0.0638290494680405,0.0638264492154121,0.0635824501514435,0.0633988529443741,0.063546396791935,0.0642460510134697,0.0655988976359367,0.0673204958438873,0.0688885003328323,0.0704021528363228,0.0725183039903641,0.0753422528505325,0.0783413499593735,0.0811063498258591,0.0834804549813271,0.0853103026747704,0.0864814966917038,0.0873119980096817,0.0884120538830757,0.0897277966141701,0.0905991941690445,0.0909440517425537,0.0913215503096581,0.0920047983527184,0.0928864479064941,0.0940305516123772,0.0956843048334122,0.0977687016129494,0.0998644009232521,0.101663500070572,0.103064306080341,0.104098856449127,0.104946695268154,0.106061145663261,0.107963897287846,0.110295102000237,0.111947946250439,0.112563200294971,0.112667202949524,0.112731352448463,0.112967051565647,0.113445401191711,0.114126354455948,0.114856943488121,0.115491956472397,0.116380199790001,0.118203446269035,0.120842956006527,0.123470298945904,0.126044854521751,0.129298746585846,0.133181750774384,0.136770397424698,0.139460802078247,0.141213446855545,0.142340943217278,0.143340855836868,0.144440203905106,0.145563200116158,0.146657302975655,0.147720098495483,0.148579746484756,0.149027913808823,0.149568200111389,0.151184156537056,0.15366019308567,0.155721291899681,0.157268494367599,0.15941596031189,0.162404894828796,0.16547580063343,0.168445944786072,0.171803951263428,0.175507754087448,0.178952902555466,0.182042703032494,0.185222908854485,0.188551306724548,0.191613808274269,0.194117501378059,0.196069240570068,0.19789169728756,0.200237601995468,0.203132003545761,0.206046298146248,0.209057003259659,0.212818250060081,0.217292204499245,0.221764162182808,0.226171597838402,0.231132760643959,0.236735805869102,0.242454200983047,0.248025253415108,0.253484785556793,0.25843009352684,0.262178301811218,0.265135943889618,0.268633753061295,0.272895276546478,0.276969999074936,0.280497908592224,0.283907473087311,0.28744050860405,0.291096061468124,0.2953782081604,0.301092952489853,0.307789832353592,0.313968151807785,0.319461405277252,0.325458526611328,0.332199305295944,0.338849812746048,0.345303505659103,0.352226257324219,0.359433144330978,0.365941435098648,0.371805012226105,0.378078758716583,0.384842693805695,0.391183495521545,0.397095441818237,0.403497755527496,0.410402894020081,0.416885733604431,0.42279326915741,0.428846597671509,0.435344398021698,0.442022353410721,0.448787778615952,0.455758392810822,0.462683379650116,0.468986332416534,0.474520146846771,0.479617834091187,0.484541893005371,0.489374995231628,0.494128882884979,0.498753011226654,0.503059148788452,0.506806969642639,0.510123729705811,0.513456463813782,0.516960680484772,0.520460367202759,0.52389794588089,0.527377724647522,0.530890107154846,0.534352779388428,0.53805410861969,0.542504966259003,0.547398388385773,0.551742613315582,0.555426955223083,0.5592160820961,0.563155829906464,0.566522002220154,0.569209933280945,0.5717613697052,0.574079692363739,0.575465798377991,0.57604968547821,0.576777458190918,0.577925443649292,0.579010426998138,0.579910933971405,0.580925762653351,0.581884264945984,0.582193315029144,0.581915557384491,0.581762552261353,0.58198481798172,0.582229197025299,0.582077980041504,0.581213057041168,0.57953816652298,0.577170729637146,0.574285626411438,0.571047306060791,0.567492187023163,0.563508629798889,0.55887895822525,0.553392291069031,0.547259330749512,0.54105943441391,0.535106658935547,0.529301166534424,0.523162603378296,0.516059517860413,0.508091807365417,0.500029802322388,0.492179870605469,0.4842609167099,0.476036995649338,0.467411756515503,0.458171784877777,0.448107331991196,0.437753051519394,0.428156107664108,0.419208854436874,0.409720301628113,0.399368852376938,0.388833403587341,0.378365099430084,0.367690086364746,0.357050150632858,0.347128450870514,0.337715357542038,0.327783107757568,0.317122936248779,0.306459248065948,0.29627200961113,0.286590993404388,0.277348846197128,0.26842725276947,0.259488046169281,0.250076860189438,0.240206956863403,0.23037388920784,0.221025750041008,0.212340950965881,0.203870445489883,0.194781497120857,0.185198903083801,0.176154345273972,0.168040186166763,0.160481408238411,0.153361096978188,0.146874442696571,0.140717953443527,0.134228646755219,0.12775419652462,0.122464001178741,0.118220746517181,0.113602302968502,0.108118802309036,0.102430306375027,0.0970062017440796,0.0918971970677376,0.0871678963303566,0.0828691497445107,0.0784947499632835,0.0732145011425018,0.0673482045531273,0.0622476004064083,0.0583503507077694,0.0550121031701565,0.0517827533185482,0.0486371479928493,0.0456236004829407,0.0428178012371063,0.0404913015663624,0.0389945991337299,0.0381226986646652,0.0371826514601707,0.0358998998999596,0.0344786494970322,0.0329358503222466,0.0310344509780407,0.0286790989339352,0.0259865000844002,0.0231686495244503,0.0204297006130219,0.0176737494766712,0.0146359000355005,0.0117023997008801,0.00977590028196573,0.00891599990427494,0.00837180018424988,0.0080718994140625,0.00863240007311106,0.00990184955298901,0.0109778000041842,0.0117258997634053,0.012772349640727,0.0139499502256513,0.0143339494243264,0.0139339491724968,0.0136874997988343,0.0137390997260809,0.0133801503106952,0.0125246504321694,0.0118011496961117,0.0114425998181105,0.0111960498616099,0.0110747003927827,0.011379349976778,0.0120423994958401,0.0126406494528055,0.0131061002612114,0.0137433502823114,0.0145870000123978,0.0153446504846215,0.0158073492348194,0.0159348491579294,0.0157816503196955,0.0154868997633457,0.0153040494769812,0.0154975997284055,0.0159042999148369,0.0159978996962309,0.0155924996361136,0.0149302994832397,0.014333950355649,0.0140841491520405,0.0142804998904467,0.0148026505485177,0.0152909504249692,0.0152922999113798,0.0148526495322585,0.0145278498530388,0.0148328496143222,0.016031950712204,0.0178530011326075,0.019574299454689,0.0206572003662586,0.0209362506866455,0.0207460001111031,0.0207500495016575,0.0211331993341446,0.0215306505560875,0.0215519499033689,0.0209708511829376,0.0199579503387213,0.0190000999718904,0.0183437000960112,0.0179402995854616,0.0177923999726772,0.0179734006524086,0.0183661505579948,0.0186918005347252,0.0188830494880676,0.0190983004868031,0.0194012504070997,0.0197077505290508,0.0198906995356083,0.0198183506727219,0.0193972997367382,0.0186077002435923,0.0175997000187635,0.0166616998612881,0.0160006489604712,0.0157070495188236,0.0158382505178452,0.0163928493857384,0.0171296484768391,0.0176522992551327,0.0179345011711121,0.0183138996362686,0.0189461000263691,0.0197245497256517,0.0205058995634317,0.0211346000432968,0.0213171001523733,0.0207485985010862,0.0197415500879288,0.019106600433588,0.0190389007329941,0.0190354492515326,0.0186729002743959,0.0177953001111746,0.0164898503571749,0.0150472493842244,0.0138311497867107,0.013158599846065,0.0129591999575496,0.0128080993890762,0.0124031500890851,0.011676549911499,0.0107634495943785,0.00993974972516298,0.00940044969320297,0.00918459985405207,0.00908755045384169,0.00873349979519844,0.00795174948871136,0.00685029989108443,0.00573730003088713,0.0048814001493156,0.0042911502532661,0.00389704992994666,0.00347754987888038
0.00557235023006797,0.00546560017392039,0.0058128503151238,0.00691050011664629,0.00839910097420216,0.0102211013436317,0.0127823008224368,0.0147945005446672,0.0185227002948523,0.025577349588275,0.0368898510932922,0.0526294037699699,0.0723517015576363,0.0956783443689346,0.122554004192352,0.153596848249435,0.189981147646904,0.23262070119381,0.28198829293251,0.33821165561676,0.40105938911438,0.469785392284393,0.543505251407623,0.622853457927704,0.709471523761749,0.802302896976471,0.897687256336212,0.993442595005035,1.08929455280304,1.18451058864594,1.27746260166168,1.36624217033386,1.44900929927826,1.52476871013641,1.59340214729309,1.65501952171326,1.70928919315338,1.75341010093689,1.78265392780304,1.79455733299255,1.78965604305267,1.77023196220398,1.73918426036835,1.69677579402924,1.64072573184967,1.56983494758606,1.48467946052551,1.3867564201355,1.27788019180298,1.15862226486206,1.02890682220459,0.891950786113739,0.754059493541718,0.619873225688934,0.491691768169403,0.371531933546066,0.261594831943512,0.164078190922737,0.0811288356781006,0.0148386470973492,-0.0335610061883926,-0.0669163018465042,-0.0914605408906937,-0.110837005078793,-0.125407695770264,-0.135469049215317,-0.141745299100876,-0.144146949052811,-0.141818538308144,-0.134568408131599,-0.123106949031353,-0.108570903539658,-0.0923621505498886,-0.0759801939129829,-0.0607284530997276,-0.0467101968824863,-0.0331023037433624,-0.0202536024153233,-0.00969354994595051,-0.00206579966470599,0.00316395005211234,0.00681280251592398,0.00969949830323458,0.0124197993427515,0.0152591001242399,0.0180713981389999,0.0204284507781267,0.0223402995616198,0.0242578499019146,0.0263578481972218,0.0284429509192705,0.0302517507225275,0.0315596982836723,0.0322679989039898,0.0324666500091553,0.0325981006026268,0.0333060994744301,0.034663699567318,0.0361763015389442,0.0375651009380817,0.0388399511575699,0.0398082509636879,0.0401305481791496,0.0400336012244225,0.0402060970664024,0.0406653992831707,0.0407866016030312,0.0405536517500877,0.0405960008502007,0.0410844497382641,0.0416584983468056,0.0422391518950462,0.0430723018944263,0.0440924987196922,0.0449141003191471,0.0454370975494385,0.0458699017763138,0.0462148003280163,0.0462550483644009,0.046016950160265,0.0458041504025459,0.0458788499236107,0.0463891997933388,0.0473984517157078,0.0488464012742043,0.0503588020801544,0.0513898991048336,0.0519781485199928,0.0527066998183727,0.0537915527820587,0.054985050112009,0.0560984499752522,0.0570609495043755,0.0576341971755028,0.057515200227499,0.0570446029305458,0.0570785477757454,0.0577736012637615,0.0585382021963596,0.0590536519885063,0.0594214536249638,0.0597326010465622,0.0600411482155323,0.0606877505779266,0.0621543005108833,0.0641513988375664,0.0657263025641441,0.0666045024991035,0.0672802031040192,0.0680346488952637,0.0688420012593269,0.0699717476963997,0.0718566998839378,0.0739592015743256,0.074985146522522,0.0748758018016815,0.0748352035880089,0.0754473507404327,0.0764040499925613,0.0773003995418549,0.0778666511178017,0.0781035497784615,0.0783118456602097,0.0790757015347481,0.0810079500079155,0.0837463513016701,0.0861231982707977,0.0878491550683975,0.0896144509315491,0.0918123498558998,0.0942730009555817,0.0964756980538368,0.0977975502610207,0.0982993468642235,0.0986897498369217,0.099399097263813,0.100400194525719,0.101419501006603,0.102092698216438,0.102372951805592,0.102575100958347,0.103141196072102,0.104447349905968,0.106264099478722,0.107885904610157,0.109186500310898,0.110672049224377,0.11263520270586,0.115008294582367,0.117624647915363,0.120287649333477,0.122786954045296,0.124937199056149,0.126714795827866,0.128272503614426,0.129861101508141,0.131697997450829,0.133521795272827,0.134746938943863,0.135527595877647,0.136699691414833,0.138482987880707,0.14043790102005,0.142590701580048,0.145437747240067,0.148835510015488,0.152062654495239,0.155176505446434,0.158989056944847,0.163614496588707,0.168371394276619,0.172850057482719,0.177029296755791,0.180677503347397,0.183410584926605,0.185520559549332,0.187863260507584,0.190581455826759,0.193050295114517,0.194937601685524,0.196399241685867,0.197797998785973,0.199596747756004,0.202213302254677,0.205855250358582,0.210009559988976,0.213666349649429,0.216727197170258,0.220032393932343,0.224059700965881,0.22870010137558,0.233660101890564,0.238590851426125,0.243198856711388,0.247360154986382,0.251465290784836,0.256221652030945,0.261518895626068,0.266503304243088,0.271008133888245,0.275619566440582,0.280508309602737,0.285323530435562,0.289936751127243,0.294533789157867,0.299243122339249,0.304061949253082,0.308934897184372,0.313765496015549,0.318391680717468,0.322635143995285,0.326528459787369,0.330279529094696,0.333902984857559,0.337227314710617,0.340285092592239,0.343321204185486,0.346428453922272,0.349526762962341,0.352639228105545,0.355875045061111,0.359081894159317,0.361926794052124,0.364565759897232,0.36757105588913,0.370974659919739,0.374274998903275,0.37742480635643,0.380812138319016,0.384191900491714,0.386780679225922,0.388704597949982,0.390929818153381,0.39354133605957,0.395696640014648,0.397162169218063,0.39842301607132,0.399586707353592,0.400325953960419,0.400756180286407,0.401431679725647,0.402451246976852,0.403456419706345,0.404510498046875,0.40603843331337,0.4077028632164,0.408518880605698,0.408436238765717,0.408377319574356,0.408803105354309,0.409499794244766,0.410157293081284,0.410499542951584,0.410227447748184,0.409108370542526,0.407390058040619,0.405719220638275,0.404401987791061,0.403275549411774,0.401937514543533,0.399925142526627,0.397206842899323,0.394194453954697,0.391304761171341,0.388776153326035,0.386373519897461,0.383510887622833,0.380037695169449,0.376287817955017,0.37248820066452,0.368635296821594,0.364589989185333,0.36012876033783,0.355053693056107,0.34931954741478,0.343433350324631,0.338238120079041,0.333642959594727,0.328670620918274,0.322910666465759,0.316707700490952,0.310459017753601,0.304428100585938,0.298700362443924,0.293167144060135,0.287509858608246,0.281287312507629,0.274306058883667,0.266728162765503,0.259136497974396,0.252316117286682,0.246311649680138,0.24043744802475,0.234257057309151,0.227748841047287,0.220988363027573,0.214114189147949,0.207511246204376,0.20162145793438,0.196002349257469,0.189525797963142,0.182114899158478,0.174786448478699,0.168084293603897,0.161861404776573,0.155970498919487,0.150363638997078,0.1447973549366,0.138941556215286,0.133113697171211,0.128117397427559,0.12386354804039,0.119386203587055,0.114287197589874,0.10891979932785,0.103684201836586,0.0988530963659286,0.0945786982774734,0.0908206552267075,0.0870500430464745,0.0824824050068855,0.077307902276516,0.0726166963577271,0.0688682496547699,0.0657078996300697,0.0627618506550789,0.0598206482827663,0.0567808002233505,0.0536806024610996,0.0509014986455441,0.0490007996559143,0.0478376001119614,0.0466310530900955,0.0450682006776333,0.0434022508561611,0.041737150400877,0.0399089492857456,0.0377232991158962,0.0350796021521091,0.0322284512221813,0.029653700068593,0.0273453500121832,0.0248694997280836,0.0223760008811951,0.0205558985471725,0.019463500007987,0.0185285992920399,0.0177833996713161,0.0178296007215977,0.0184845495969057,0.0188350006937981,0.0188075006008148,0.0191241502761841,0.0195531509816647,0.0190085507929325,0.0176970493048429,0.0170486997812986,0.0172945000231266,0.0173702500760555,0.0169460494071245,0.0166043508797884,0.016517398878932,0.0163777507841587,0.0164451990276575,0.0174413491040468,0.0190837010741234,0.0201796498149633,0.0204699002206326,0.020711550489068,0.0211724992841482,0.0214869491755962,0.0215840507298708,0.0217277500778437,0.0217466503381729,0.0211215000599623,0.0201050490140915,0.0196369998157024,0.0198826007544994,0.0201472993940115,0.0199950002133846,0.0194509997963905,0.0186955500394106,0.017994150519371,0.0177253000438213,0.0182090494781733,0.0189929492771626,0.0190555993467569,0.018334349617362,0.0177817512303591,0.0180643498897552,0.0192534513771534,0.0208914019167423,0.0221899002790451,0.022757800295949,0.0227381493896246,0.0226282011717558,0.0230436511337757,0.0239570997655392,0.0247229505330324,0.0249406490474939,0.0246331505477428,0.0240993518382311,0.0237706992775202,0.0237838998436928,0.0239550992846489,0.0241030994802713,0.0241296011954546,0.024014649912715,0.0238295998424292,0.0237892493605614,0.0241608005017042,0.024847749620676,0.0254323501139879,0.0257639996707439,0.0260094497352839,0.0262674000114202,0.0264944992959499,0.0265986006706953,0.0264782998710871,0.0260974504053593,0.0255282483994961,0.0250503495335579,0.0250488501042128,0.0255016498267651,0.0259815007448196,0.0261755995452404,0.0260137990117073,0.0256612002849579,0.0254320502281189,0.0254474990069866,0.0255724992603064,0.0255031995475292,0.0248879995197058,0.0237258486449718,0.022392600774765,0.0213454999029636,0.0209329500794411,0.0209251008927822,0.0206240992993116,0.0197753496468067,0.0186804495751858,0.0177424512803555,0.0172758996486664,0.0172076001763344,0.017102500423789,0.0165707506239414,0.0154465502128005,0.0140980500727892,0.0132710495963693,0.0131508493795991,0.0132826007902622,0.0131847504526377,0.0125497002154589,0.0114284502342343,0.0101626999676228,0.00892799999564886,0.007910399697721,0.0069695501588285,0.00592054985463619,0.00466304970905185
0.00136755011044443,-0.000666100182570517,-0.00250065000727773,-0.00388769991695881,-0.00530519988387823,-0.00681350007653236,-0.00787509977817535,-0.00918260030448437,-0.00838240049779415,-0.00401444965973496,0.00451424950733781,0.0172263998538256,0.0337483994662762,0.0537083484232426,0.0769218057394028,0.103733748197556,0.134911641478539,0.170880898833275,0.211677193641663,0.257523566484451,0.308789789676666,0.365247875452042,0.426304757595062,0.492674142122269,0.5660440325737,0.646075963973999,0.730435907840729,0.817916452884674,0.908698081970215,1.00226938724518,1.09700524806976,1.19055998325348,1.28032279014587,1.36484313011169,1.44382953643799,1.51671266555786,1.58213746547699,1.63736760616302,1.67855250835419,1.70239078998566,1.70699238777161,1.6936616897583,1.66613399982452,1.62573981285095,1.57112538814545,1.50197458267212,1.41969645023346,1.32645261287689,1.22473013401031,1.11660003662109,1.00387406349182,0.889470040798187,0.777226388454437,0.669791758060455,0.568424224853516,0.474296152591705,0.388653844594955,0.31214839220047,0.24498525261879,0.188189640641212,0.143102094531059,0.108090102672577,0.0788803547620773,0.0531734973192215,0.0311424024403095,0.0128139425069094,-0.00227510230615735,-0.0138358557596803,-0.0208690520375967,-0.0230729021131992,-0.0210661478340626,-0.0158719010651112,-0.00875275488942862,-0.00106609822250903,0.00600514933466911,0.0123835979029536,0.0188391972333193,0.0250294990837574,0.0295157507061958,0.0317927002906799,0.032522551715374,0.0324427001178265,0.0321264006197453,0.0321164987981319,0.03281319886446,0.0338908992707729,0.0344858504831791,0.0345287993550301,0.0347713492810726,0.0355555489659309,0.036609448492527,0.0374611504375935,0.0376332998275757,0.0370084010064602,0.0358843505382538,0.0348317995667458,0.0344827994704247,0.034824300557375,0.0352372005581856,0.0353556014597416,0.0351944491267204,0.0347978509962559,0.0341980494558811,0.0336005017161369,0.0333025977015495,0.0331820994615555,0.0327810011804104,0.0321574509143829,0.0318717993795872,0.0320831499993801,0.0324958004057407,0.0330499522387981,0.0339422002434731,0.0350188016891479,0.035793598741293,0.0361276008188725,0.0362569987773895,0.0362210012972355,0.0358306504786015,0.0351121500134468,0.0343416519463062,0.0337418504059315,0.0334347002208233,0.0335562489926815,0.0342047996819019,0.0351151004433632,0.0357858017086983,0.0363148488104343,0.0373357012867928,0.0389300510287285,0.0405658483505249,0.0419339500367641,0.0430408492684364,0.0437415987253189,0.0437858998775482,0.0434730015695095,0.0435390472412109,0.0440496020019054,0.0443878993391991,0.0443108528852463,0.0440723523497581,0.0438608005642891,0.0437339507043362,0.0439219512045383,0.0447520986199379,0.0460410974919796,0.0471426025032997,0.0477448999881744,0.0479968003928661,0.0482154488563538,0.0487728007137775,0.0499360486865044,0.0517356991767883,0.0535959005355835,0.0545493513345718,0.0544692985713482,0.0541063994169235,0.054007850587368,0.054262850433588,0.0545670986175537,0.054415550082922,0.0538119487464428,0.0533230490982533,0.0535866990685463,0.0550377517938614,0.0573047511279583,0.0593976005911827,0.061064749956131,0.0628648474812508,0.0650987476110458,0.0675750970840454,0.0697387978434563,0.0709059536457062,0.0710751488804817,0.0709159523248672,0.0709109008312225,0.0711720958352089,0.071559801697731,0.0717827007174492,0.0716743543744087,0.0712922960519791,0.0710365995764732,0.0714668482542038,0.0724539011716843,0.0732789039611816,0.0738781988620758,0.0748763531446457,0.0764748975634575,0.0783405005931854,0.0802740529179573,0.0822996497154236,0.0843540504574776,0.0862559974193573,0.0878921002149582,0.089266799390316,0.090513601899147,0.0918012037873268,0.0929475948214531,0.0935345515608788,0.0937525033950806,0.0943373963236809,0.095470704138279,0.0967656001448631,0.0983113944530487,0.100637048482895,0.103521704673767,0.106091447174549,0.10839319229126,0.111376248300076,0.115241996943951,0.119311295449734,0.123146951198578,0.126682102680206,0.129613801836967,0.13150030374527,0.132754758000374,0.134470045566559,0.136724144220352,0.138549700379372,0.1395073980093,0.139921948313713,0.140252009034157,0.140944942831993,0.142488107085228,0.145229056477547,0.148613557219505,0.151431053876877,0.153559401631355,0.15599799156189,0.159251794219017,0.16309130191803,0.167206391692162,0.171341747045517,0.17518025636673,0.178454756736755,0.181504398584366,0.185108438134193,0.189266294240952,0.193223387002945,0.19679294526577,0.200437650084496,0.204272001981735,0.207986637949944,0.211541444063187,0.215213984251022,0.219104796648026,0.223085448145866,0.227089494466782,0.231145307421684,0.235221296548843,0.239202737808228,0.242956146597862,0.246358245611191,0.249347701668739,0.251954704523087,0.254361003637314,0.256837904453278,0.259433746337891,0.261968940496445,0.264329850673676,0.266516655683517,0.268538802862167,0.270435184240341,0.272458851337433,0.27497535943985,0.277878850698471,0.280666023492813,0.283318102359772,0.286264836788177,0.289353787899017,0.291906833648682,0.293979912996292,0.296308308839798,0.298830837011337,0.300716042518616,0.301939755678177,0.303283303976059,0.304748803377151,0.305552631616592,0.305686771869659,0.30597847700119,0.306765049695969,0.30778169631958,0.309031307697296,0.310763746500015,0.312522768974304,0.313311398029327,0.313207745552063,0.313342392444611,0.314192980527878,0.315364986658096,0.316421210765839,0.317072242498398,0.317110627889633,0.316456645727158,0.315406054258347,0.314525216817856,0.31398218870163,0.313482135534286,0.312680095434189,0.311340838670731,0.309568047523499,0.307771652936935,0.306310564279556,0.305325448513031,0.30443000793457,0.302890181541443,0.300651103258133,0.298355102539062,0.296381592750549,0.294638007879257,0.292679399251938,0.289877265691757,0.285974889993668,0.281235158443451,0.276476442813873,0.272732615470886,0.269854664802551,0.266595393419266,0.262347936630249,0.257411807775497,0.252321511507034,0.247608095407486,0.243517458438873,0.239925846457481,0.236282557249069,0.231801390647888,0.226286754012108,0.220216050744057,0.214244902133942,0.208952993154526,0.20431824028492,0.199758350849152,0.194818452000618,0.189342752099037,0.183472841978073,0.177586615085602,0.172056138515472,0.167062252759933,0.16209514439106,0.156203001737595,0.149489209055901,0.143080741167068,0.137503400444984,0.132488697767258,0.127825602889061,0.123475946485996,0.119182445108891,0.114577949047089,0.110010899603367,0.106358498334885,0.103450745344162,0.100109502673149,0.0958838984370232,0.0912559032440186,0.0867300033569336,0.0826087966561317,0.0790039971470833,0.0758001506328583,0.0724997445940971,0.0684460997581482,0.0638715997338295,0.0598101019859314,0.0566967502236366,0.0541880019009113,0.0518424510955811,0.0493377484381199,0.0466610006988049,0.0440973006188869,0.0419978983700275,0.0406254008412361,0.0397703982889652,0.0388296507298946,0.0375051982700825,0.0358853489160538,0.0340678505599499,0.0320667512714863,0.029815100133419,0.027224900200963,0.0244240500032902,0.0217022988945246,0.0190583504736423,0.0162812992930412,0.0137294000014663,0.0121888006106019,0.0115283997729421,0.0108006997033954,0.0099881999194622,0.00999290030449629,0.0108490502461791,0.0116739999502897,0.0122563000768423,0.013078149408102,0.0138126499950886,0.0134564498439431,0.0123613495379686,0.0120705002918839,0.0126331001520157,0.0125904502347112,0.0116017498075962,0.0106285493820906,0.0100467996671796,0.00950254965573549,0.00922979973256588,0.00997664965689182,0.011400499381125,0.0121949501335621,0.0122058000415564,0.0124799497425556,0.0133439004421234,0.0142184495925903,0.0147961499169469,0.0151777490973473,0.0152352498844266,0.0146584995090961,0.0137723498046398,0.0134247997775674,0.0137221999466419,0.0139656001701951,0.0136644998565316,0.0127758998423815,0.011646349914372,0.0108691491186619,0.0107701998203993,0.0112664503976703,0.0118095502257347,0.01163350045681,0.0107958503067493,0.0101794498041272,0.010457749478519,0.0117899496108294,0.0136393001303077,0.0149973994120955,0.0154672004282475,0.0154032493010163,0.0153952995315194,0.0159903503954411,0.0171013996005058,0.0180581491440535,0.018401250243187,0.0180823504924774,0.0174693502485752,0.0171649996191263,0.017271600663662,0.0173908993601799,0.0173585992306471,0.0173205994069576,0.0173001494258642,0.0171923004090786,0.0171665493398905,0.0175932999700308,0.0183443501591682,0.0188398491591215,0.018936300650239,0.0189679507166147,0.0190245993435383,0.0188989005982876,0.0186023004353046,0.0183649994432926,0.0181286502629519,0.017612349241972,0.0170834492892027,0.0172498505562544,0.0180521495640278,0.0186785999685526,0.0188301000744104,0.0188354998826981,0.0188468005508184,0.0187603496015072,0.0187039989978075,0.0189743004739285,0.0192996002733707,0.0189484991133213,0.0179048497229815,0.0169044993817806,0.0164068005979061,0.0163782499730587,0.0164490994066,0.0160888992249966,0.0151496501639485,0.0139182498678565,0.0127855502068996,0.0120924999937415,0.0118508003652096,0.011744000017643,0.0114135500043631,0.0106266504153609,0.00966694951057434,0.00920424982905388,0.00938425026834011,0.00976040028035641,0.00992735009640455,0.00968020036816597,0.00901755038648844,0.00810300000011921,0.00710840011015534,0.00622330000624061,0.00543935038149357,0.00464635016396642,0.00371035002171993
-0.00366124999709427,-0.00678580021485686,-0.00971794966608286,-0.0123203992843628,-0.0151102989912033,-0.0182201005518436,-0.0212190002202988,-0.0238527990877628,-0.0243584997951984,-0.0218973495066166,-0.0164756495505571,-0.00817849952727556,0.00295419991016388,0.0166594497859478,0.032524298876524,0.0505398511886597,0.0710951536893845,0.0944002941250801,0.120468698441982,0.149627447128296,0.182409897446632,0.218610495328903,0.257494360208511,0.299574673175812,0.346446931362152,0.398351788520813,0.454093247652054,0.513146221637726,0.575855791568756,0.64212554693222,0.711028337478638,0.78056925535202,0.848119616508484,0.912392616271973,0.973498225212097,1.03118252754211,1.084352850914,1.1309357881546,1.16800117492676,1.19239866733551,1.20161700248718,1.19658553600311,1.18114268779755,1.15710949897766,1.12380540370941,1.08103621006012,1.02980554103851,0.972169458866119,0.9109708070755,0.848918437957764,0.788205802440643,0.729901075363159,0.674016416072845,0.620398759841919,0.568984508514404,0.519928455352783,0.473443031311035,0.429027676582336,0.385634064674377,0.343101650476456,0.302189707756042,0.26326721906662,0.226187348365784,0.191092699766159,0.158527806401253,0.129091843962669,0.103366397321224,0.0819733440876007,0.0655285492539406,0.0543971993029118,0.0485079512000084,0.046857301145792,0.0476654469966888,0.0494933985173702,0.0515263490378857,0.0535848997533321,0.0558719970285892,0.0579508990049362,0.0588008500635624,0.0580641999840736,0.0561946481466293,0.0538029000163078,0.0514800995588303,0.0497500002384186,0.0489330999553204,0.048649899661541,0.0480097495019436,0.0468656979501247,0.0458585508167744,0.0453389510512352,0.0451411493122578,0.0447517484426498,0.0435364991426468,0.0414754003286362,0.0391751490533352,0.0371885001659393,0.0358094982802868,0.0349299982190132,0.0341169014573097,0.0330642014741898,0.0317033492028713,0.0301989503204823,0.0288654491305351,0.0278373006731272,0.0270210988819599,0.026230700314045,0.0252868998795748,0.0242834500968456,0.0235470999032259,0.0232107508927584,0.0231851004064083,0.0234664510935545,0.0241224002093077,0.0249255001544952,0.0254078004509211,0.0254465993493795,0.0252806004136801,0.024990800768137,0.0244507491588593,0.0236443504691124,0.0227094497531652,0.0217987485229969,0.0210485011339188,0.0205971486866474,0.0205454006791115,0.0207723006606102,0.0210306998342276,0.0215073488652706,0.0227217990905046,0.0245633497834206,0.0263048484921455,0.0276152491569519,0.0286609511822462,0.0294971000403166,0.0300161987543106,0.0303600002080202,0.0308609511703253,0.0313956998288631,0.0314446985721588,0.0309744495898485,0.0304641500115395,0.0301354005932808,0.0298753492534161,0.0296975485980511,0.0297766998410225,0.0301229991018772,0.0305401999503374,0.0307867992669344,0.0306949000805616,0.0304828491061926,0.0306866988539696,0.0315691493451595,0.0329916998744011,0.0344959981739521,0.0354496501386166,0.0355462990701199,0.0349031984806061,0.0339515507221222,0.0332475490868092,0.0328342989087105,0.0322727486491203,0.0314088501036167,0.0305155497044325,0.0300958007574081,0.030673049390316,0.0321548506617546,0.0339055992662907,0.0356751494109631,0.0376630499958992,0.039844948798418,0.0418764986097813,0.0433831997215748,0.0440846495330334,0.0440002493560314,0.043434850871563,0.0427138991653919,0.0420984029769897,0.0417091995477676,0.0414931997656822,0.0411607474088669,0.0403502993285656,0.0393463000655174,0.0389382503926754,0.039138600230217,0.0392202995717525,0.0391464978456497,0.0395892485976219,0.0405713990330696,0.0414297021925449,0.0420256517827511,0.0428192503750324,0.0439506471157074,0.0451385974884033,0.0461905002593994,0.0470914021134377,0.0478505007922649,0.048454400151968,0.0488394014537334,0.0489449501037598,0.0489576011896133,0.0492467023432255,0.0498600974678993,0.0505588985979557,0.0514618009328842,0.0529767498373985,0.0548852011561394,0.0564451515674591,0.0577125996351242,0.0595230534672737,0.0620943978428841,0.064903698861599,0.0675993487238884,0.0700922012329102,0.072004996240139,0.0728216022253036,0.0730284452438354,0.0738896504044533,0.0754082500934601,0.0763254016637802,0.076154500246048,0.0754256546497345,0.0746285989880562,0.0740493461489677,0.0741810947656631,0.0755575448274612,0.0776785537600517,0.0792350471019745,0.0800829976797104,0.081278994679451,0.0832490995526314,0.0855870991945267,0.0880749970674515,0.090779647231102,0.0934137478470802,0.0954215526580811,0.0969623997807503,0.0988406538963318,0.101240701973438,0.103670500218868,0.105998352169991,0.108513355255127,0.11113029718399,0.113399744033813,0.115339756011963,0.11744199693203,0.119865402579308,0.122365951538086,0.124826602637768,0.127339005470276,0.13000500202179,0.13283184170723,0.135518550872803,0.137572452425957,0.13899190723896,0.140259698033333,0.141630902886391,0.143031492829323,0.144364044070244,0.145558267831802,0.146467551589012,0.146941155195236,0.147212594747543,0.14783850312233,0.149068742990494,0.150752454996109,0.15258926153183,0.154298290610313,0.156039103865623,0.15829074382782,0.160945400595665,0.163349509239197,0.165372312068939,0.167413398623466,0.169363647699356,0.170655563473701,0.171510547399521,0.172814399003983,0.174373596906662,0.175006151199341,0.174651294946671,0.174448952078819,0.17494985461235,0.175889492034912,0.177070498466492,0.178457960486412,0.179676741361618,0.180139303207397,0.18006195127964,0.180383294820786,0.181419312953949,0.182722896337509,0.183865800499916,0.184624046087265,0.184941053390503,0.184913143515587,0.184767156839371,0.184776395559311,0.1849465072155,0.185011357069016,0.18473881483078,0.184052959084511,0.183217957615852,0.182754158973694,0.182917937636375,0.183573141694069,0.184196799993515,0.184108704328537,0.183380112051964,0.18279629945755,0.182787895202637,0.183199197053909,0.183431506156921,0.182666257023811,0.180616408586502,0.177677541971207,0.174783453345299,0.173027396202087,0.17229525744915,0.171344697475433,0.169490247964859,0.16689258813858,0.164030104875565,0.161494508385658,0.159698948264122,0.15870475769043,0.157819047570229,0.155853301286697,0.15256305038929,0.148735955357552,0.145108491182327,0.142062708735466,0.139496251940727,0.136905342340469,0.13384835422039,0.130110055208206,0.125894844532013,0.121746100485325,0.118024952709675,0.114743150770664,0.111413948237896,0.107300005853176,0.10255179554224,0.0981488525867462,0.0945204049348831,0.0914065018296242,0.0886799991130829,0.0863993465900421,0.0841972455382347,0.0814374536275864,0.0784538984298706,0.0763558000326157,0.0750128477811813,0.0730853974819183,0.0701645985245705,0.0669608041644096,0.0639209002256393,0.0610208995640278,0.0583212003111839,0.0559618473052979,0.0535861514508724,0.0505015030503273,0.0468987002968788,0.0437881983816624,0.0415270514786243,0.0396609008312225,0.0377629511058331,0.0356652475893497,0.0335448980331421,0.0318176001310349,0.0306303985416889,0.029814600944519,0.0292043015360832,0.0286743510514498,0.0279732998460531,0.0267863497138023,0.0251556485891342,0.0234332494437695,0.021670900285244,0.019607899710536,0.0172311495989561,0.0147858997806907,0.0122633501887321,0.0094870999455452,0.0069724996574223,0.00572599982842803,0.00558270001783967,0.00531869987025857,0.00476429983973503,0.00487129995599389,0.00586765026673675,0.00710720010101795,0.00830790027976036,0.00962485000491142,0.0106979506090283,0.0107780499383807,0.0101808495819569,0.0101158004254103,0.0105480998754501,0.010223850607872,0.00890395045280457,0.00751104997470975,0.00648070033639669,0.00560515001416206,0.00506300013512373,0.00537715014070272,0.00621929997578263,0.00654955022037029,0.00637020030990243,0.0067094499245286,0.00780550017952919,0.00895364955067635,0.00971115007996559,0.0100809503346682,0.0100403502583504,0.00952860061079264,0.00887134950608015,0.00866840034723282,0.00891940016299486,0.00901230052113533,0.00855159945785999,0.00756160030141473,0.00647614989429712,0.00595184974372387,0.00613160012289882,0.00659504998475313,0.00689294980838895,0.00672909989953041,0.0061533497646451,0.00557164987549186,0.00559274991974235,0.00676354998722672,0.00866230018436909,0.0100680002942681,0.0105453003197908,0.0106070498004556,0.0107782995328307,0.0113436505198479,0.0122758997604251,0.0132577493786812,0.0138445496559143,0.0136516494676471,0.0129387499764562,0.0124698998406529,0.0123670995235443,0.0120991999283433,0.0115879997611046,0.0112608000636101,0.0111510502174497,0.010878000408411,0.0104600498452783,0.0103207994252443,0.0105022499337792,0.0106338504701853,0.0105939004570246,0.0105407498776913,0.0103767002001405,0.00979910045862198,0.00904699973762035,0.00880669988691807,0.00909085012972355,0.00927925016731024,0.00940174981951714,0.010105749592185,0.0112406499683857,0.0119056003168225,0.0120548997074366,0.0124968998134136,0.0132825002074242,0.0136689497157931,0.0135844005271792,0.0136436000466347,0.0137514993548393,0.0131435003131628,0.0119507499039173,0.0111881997436285,0.0111349998041987,0.0111925499513745,0.010929100215435,0.0102884005755186,0.009383549913764,0.00841445010155439,0.0075420499779284,0.0068707000464201,0.00650110002607107,0.00648649968206882,0.00661164987832308,0.00648174993693829,0.00610174983739853,0.00586494989693165,0.00592304999008775,0.00611509988084435,0.00630884990096092,0.00644030002877116,0.00633085006847978,0.00575509993359447,0.00489500025287271,0.00404789997264743,0.00340294977650046,0.00296894996427,0.00255704997107387
0.000559949956368655,0.00083000015001744,0.00103255000431091,0.00123980012722313,0.00164109980687499,0.0022770999930799,0.00298199988901615,0.00340470019727945,0.00307220034301281,0.0018432498909533,-0.000101950019598007,-0.00266429968178272,-0.00588120007887483,-0.00974364951252937,-0.0141950007528067,-0.0193072501569986,-0.0252539496868849,-0.0320262014865875,-0.0394513010978699,-0.047553651034832,-0.0565596967935562,-0.0665560960769653,-0.0775153562426567,-0.0897418558597565,-0.103796549141407,-0.119754500687122,-0.13716484606266,-0.155632704496384,-0.17492949962616,-0.194848746061325,-0.21513694524765,-0.235362336039543,-0.254904985427856,-0.273049145936966,-0.289078712463379,-0.302563697099686,-0.313333004713058,-0.321080565452576,-0.325287789106369,-0.325310558080673,-0.320561438798904,-0.311152547597885,-0.297813892364502,-0.280921757221222,-0.260436415672302,-0.236626207828522,-0.210179343819618,-0.181925147771835,-0.15269909799099,-0.123079650104046,-0.0934276506304741,-0.0643084496259689,-0.0365606024861336,-0.0111500471830368,0.0110267996788025,0.0297863483428955,0.0456302464008331,0.0589921921491623,0.0700389444828033,0.0786253362894058,0.0844559967517853,0.0877768099308014,0.0893795490264893,0.0899300947785378,0.0898085981607437,0.0891420468688011,0.0878414958715439,0.0857193470001221,0.0825599506497383,0.078288696706295,0.0730260536074638,0.0671354979276657,0.0611515492200851,0.0554389022290707,0.0501162484288216,0.0450900979340076,0.0401981994509697,0.0357478968799114,0.0324198491871357,0.0303425006568432,0.0290198493748903,0.0279686003923416,0.0268660001456738,0.0255076996982098,0.0238311011344194,0.0220529995858669,0.0205604508519173,0.0193348992615938,0.0179580505937338,0.0162093490362167,0.0141965504735708,0.0122801503166556,0.0109246000647545,0.0101773999631405,0.00965754874050617,0.00902959983795881,0.00812689960002899,0.006971700116992,0.00575330015271902,0.00472010020166636,0.00409085024148226,0.00380534958094358,0.00356164947152138,0.00321610039100051,0.00283969938755035,0.00254480028524995,0.00242199981585145,0.00246074981987476,0.00254369992762804,0.00250454992055893,0.00217300001531839,0.00149705028161407,0.000571399927139282,-0.000375499948859215,-0.00106249982491136,-0.00146970013156533,-0.00181390019133687,-0.002133599948138,-0.00226174993440509,-0.00212835008278489,-0.00180895021185279,-0.00141535000875592,-0.00106609985232353,-0.000876049976795912,-0.000923399813473225,-0.00112619996070862,-0.00130539992824197,-0.00156274996697903,-0.00222979974932969,-0.00328895007260144,-0.00436574965715408,-0.00527425017207861,-0.00607425021007657,-0.00675169937312603,-0.00720399990677834,-0.00750100007280707,-0.0078575499355793,-0.00826170016080141,-0.00848300009965897,-0.00847835000604391,-0.00841765012592077,-0.00838410016149282,-0.00834664981812239,-0.00834954995661974,-0.00851880013942719,-0.00889529939740896,-0.00939870066940784,-0.00985089968889952,-0.010058999992907,-0.0101262498646975,-0.0104077998548746,-0.0110236499458551,-0.0118009997531772,-0.0125333005562425,-0.0130462497472763,-0.013204999268055,-0.0129562001675367,-0.0124870501458645,-0.0121453497558832,-0.011956200003624,-0.0116453496739268,-0.0112153496593237,-0.0109916497021914,-0.0112336007878184,-0.0120204500854015,-0.013187050819397,-0.0144023997709155,-0.0155495498329401,-0.0167508497834206,-0.0180902499705553,-0.0195257999002934,-0.0208147987723351,-0.0215978510677814,-0.0218051485717297,-0.0216810498386621,-0.0214757993817329,-0.0213658008724451,-0.0214442014694214,-0.0216955989599228,-0.0219050496816635,-0.0217666998505592,-0.0214115995913744,-0.0213390495628119,-0.0216180998831987,-0.0218794010579586,-0.022079000249505,-0.0225242506712675,-0.0232107006013393,-0.0238105989992619,-0.0242911502718925,-0.0249376520514488,-0.0258285496383905,-0.0267807003110647,-0.0276513993740082,-0.0284037999808788,-0.0290654003620148,-0.0296912007033825,-0.0302584990859032,-0.0306918490678072,-0.0310651995241642,-0.0315762981772423,-0.0322422981262207,-0.0329184010624886,-0.0336810983717442,-0.0347875505685806,-0.0361316986382008,-0.0372913479804993,-0.0382602997124195,-0.0394537523388863,-0.0409990027546883,-0.0426653027534485,-0.0442922487854958,-0.0458337962627411,-0.047105997800827,-0.0478606000542641,-0.0483324527740479,-0.0491359494626522,-0.0503039509057999,-0.0512681975960732,-0.0517398007214069,-0.0518519505858421,-0.0518466010689735,-0.0519900470972061,-0.0525446981191635,-0.0536749511957169,-0.0550972521305084,-0.0562161505222321,-0.0570189990103245,-0.058067798614502,-0.0595742985606194,-0.0612988993525505,-0.0630770027637482,-0.0648890510201454,-0.0666170492768288,-0.0680707544088364,-0.0693356022238731,-0.0707338452339172,-0.0723202973604202,-0.0738708004355431,-0.0753404498100281,-0.0768860504031181,-0.0784949958324432,-0.0799878537654877,-0.0813982486724854,-0.0829645022749901,-0.0847174972295761,-0.0864666551351547,-0.088154599070549,-0.0898922979831696,-0.0917409062385559,-0.0936502516269684,-0.0954297482967377,-0.0968247503042221,-0.0978513062000275,-0.0987894982099533,-0.0998218953609467,-0.100956901907921,-0.102087244391441,-0.103037849068642,-0.103703245520592,-0.104099944233894,-0.104438297450542,-0.105044394731522,-0.105975352227688,-0.107008546590805,-0.107984952628613,-0.108897998929024,-0.109905302524567,-0.111233949661255,-0.112788796424866,-0.114195302128792,-0.115364596247673,-0.116502597928047,-0.117582052946091,-0.118354648351669,-0.118923254311085,-0.119687497615814,-0.120550200343132,-0.120965257287025,-0.120924100279808,-0.120984256267548,-0.121396347880363,-0.121998600661755,-0.122666001319885,-0.123364642262459,-0.123922847211361,-0.124081298708916,-0.123926356434822,-0.123860999941826,-0.124055199325085,-0.124370194971561,-0.124605804681778,-0.124585546553135,-0.124252252280712,-0.123682156205177,-0.12304575741291,-0.122534602880478,-0.122105598449707,-0.121495448052883,-0.120531797409058,-0.119217753410339,-0.117755442857742,-0.1164760440588,-0.115533351898193,-0.114830553531647,-0.114033803343773,-0.112719595432281,-0.110955700278282,-0.109275601804256,-0.107999801635742,-0.10708100348711,-0.10616610199213,-0.10473445057869,-0.102589696645737,-0.0999476537108421,-0.0972947478294373,-0.0951875001192093,-0.093587651848793,-0.0918995961546898,-0.0897824466228485,-0.0872896984219551,-0.0846175029873848,-0.0820278972387314,-0.0797949507832527,-0.0780998468399048,-0.0766647532582283,-0.0748609006404877,-0.0725065469741821,-0.0699318498373032,-0.0674391984939575,-0.0651717036962509,-0.0631256476044655,-0.0611694492399693,-0.0591080486774445,-0.0567555502057076,-0.0541619509458542,-0.0515991002321243,-0.0492769479751587,-0.0472375489771366,-0.0452152490615845,-0.0427788011729717,-0.0400393009185791,-0.0376056507229805,-0.0356957018375397,-0.0340613014996052,-0.0325779020786285,-0.0312987491488457,-0.030087448656559,-0.028676450252533,-0.0272706001996994,-0.026435099542141,-0.0260409507900476,-0.0253029987215996,-0.0239825993776321,-0.0224910005927086,-0.0211001001298428,-0.0198150984942913,-0.0186534002423286,-0.0176552496850491,-0.0166465491056442,-0.0153148006647825,-0.0137515999376774,-0.0124233001843095,-0.0115132499486208,-0.0108420001342893,-0.0102034499868751,-0.00946765020489693,-0.00865160021930933,-0.00789690017700195,-0.00731119979172945,-0.00693249981850386,-0.0067463000304997,-0.00667745061218739,-0.0065434998832643,-0.00610945001244545,-0.00535794999450445,-0.00448295008391142,-0.00359539990313351,-0.00267240009270608,-0.00164485024288297,-0.0004358000587672,0.000973250018432736,0.00249149999581277,0.00377979991026223,0.00438510021194816,0.00441779987886548,0.00447519961744547,0.00465859984979033,0.00452829990535975,0.0039056499954313,0.00298219989053905,0.00195700000040233,0.000980749959126115,0.000299650011584163,0.000166150042787194,0.000337549950927496,0.00020579993724823,-0.000185600016266108,-0.000167449936270714,0.000432949862442911,0.00119534996338189,0.0018416999373585,0.00234155007638037,0.00259799999184906,0.00246744998730719,0.00215700012631714,0.00213365000672638,0.00236740009859204,0.00234825001098216,0.00191049999557436,0.00133274984546006,0.000911949900910258,0.000829949975013733,0.00104424997698516,0.00131670001428574,0.00143715005833656,0.00130050012376159,0.000992200104519725,0.000756599940359592,0.000788800069130957,0.00114490010309964,0.00159215007442981,0.00171174993738532,0.00145720015279949,0.00117624993436038,0.00113524997141212,0.00140410009771585,0.00186884996946901,0.00226665008813143,0.00231284997425973,0.00181025010533631,0.000960699981078506,0.000283399829640985,-2.03999225050211e-05,-0.000140649965032935,-0.00031420006416738,-0.000710450112819672,-0.00132040004245937,-0.00195734994485974,-0.0023720501922071,-0.002356450073421,-0.00204295013099909,-0.001829499960877,-0.00178100005723536,-0.0016272000502795,-0.00135260005481541,-0.00121190014760941,-0.00120015011634678,-0.00105489999987185,-0.000795649946667254,-0.000717199873179197,-0.000826050061732531,-0.000832249876111746,-0.000679199933074415,-0.000560750137083232,-0.000456199981272221,-0.000143100041896105,0.000288599985651672,0.000465799937956035,0.00036354991607368,0.000293550081551075,0.00022455002181232,-0.000191150000318885,-0.000836850143969059,-0.00116870005149394,-0.00115090003237128,-0.00126099993940443,-0.00157750002108514,-0.00174215016886592,-0.001720100059174,-0.00181449996307492,-0.00196080002933741,-0.00175610010046512,-0.00128044991288334,-0.00107769994065166,-0.00125559989828616,-0.00142694998066872,-0.00137380009982735,-0.00114849989768118,-0.000815849984064698,-0.000410150038078427,-2.17499909922481e-05,0.000214200001209974,0.0002532999496907,0.000154899898916483,-5.4994598031044e-07,-0.000146350008435547,-0.000287350034341216,-0.000486950040794909,-0.000756549998186529,-0.00104370003100485,-0.00129565002862364,-0.00147060002200305,-0.00152185000479221,-0.00142079999204725,-0.00126340007409453,-0.0010501000797376,-0.000855049991514534,-0.000722650031093508,-0.00060374999884516
-0.000559949956368655,-0.00083000015001744,-0.00103255000431091,-0.00123980012722313,-0.00164109980687499,-0.0022770999930799,-0.00298199988901615,-0.00340470019727945,-0.00307220034301281,-0.0018432498909533,0.000101950019598007,0.00266429968178272,0.00588120007887483,0.00974364951252937,0.0141950007528067,0.0193072501569986,0.0252539496868849,0.0320262014865875,0.0394513010978699,0.047553651034832,0.0565596967935562,0.0665560960769653,0.0775153562426567,0.0897418558597565,0.103796549141407,0.119754500687122,0.13716484606266,0.155632704496384,0.17492949962616,0.194848746061325,0.21513694524765,0.235362336039543,0.254904985427856,0.273049145936966,0.289078712463379,0.302563697099686,0.313333004713058,0.321080565452576,0.325287789106369,0.325310558080673,0.320561438798904,0.311152547597885,0.297813892364502,0.280921757221222,0.260436415672302,0.236626207828522,0.210179343819618,0.181925147771835,0.15269909799099,0.123079650104046,0.0934276506304741,0.0643084496259689,0.0365606024861336,0.0111500471830368,-0.0110267996788025,-0.0297863483428955,-0.0456302464008331,-0.0589921921491623,-0.0700389444828033,-0.0786253362894058,-0.0844559967517853,-0.0877768099308014,-0.0893795490264893,-0.0899300947785378,-0.0898085981607437,-0.0891420468688011,-0.0878414958715439,-0.0857193470001221,-0.0825599506497383,-0.078288696706295,-0.0730260536074638,-0.0671354979276657,-0.0611515492200851,-0.0554389022290707,-0.0501162484288216,-0.0450900979340076,-0.0401981994509697,-0.0357478968799114,-0.0324198491871357,-0.0303425006568432,-0.0290198493748903,-0.0279686003923416,-0.0268660001456738,-0.0255076996982098,-0.0238311011344194,-0.0220529995858669,-0.0205604508519173,-0.0193348992615938,-0.0179580505937338,-0.0162093490362167,-0.0141965504735708,-0.0122801503166556,-0.0109246000647545,-0.0101773999631405,-0.00965754874050617,-0.00902959983795881,-0.00812689960002899,-0.006971700116992,-0.00575330015271902,-0.00472010020166636,-0.00409085024148226,-0.00380534958094358,-0.00356164947152138,-0.00321610039100051,-0.00283969938755035,-0.00254480028524995,-0.00242199981585145,-0.00246074981987476,-0.00254369992762804,-0.00250454992055893,-0.00217300001531839,-0.00149705028161407,-0.000571399927139282,0.000375499948859215,0.00106249982491136,0.00146970013156533,0.00181390019133687,0.002133599948138,0.00226174993440509,0.00212835008278489,0.00180895021185279,0.00141535000875592,0.00106609985232353,0.000876049976795912,0.000923399813473225,0.00112619996070862,0.00130539992824197,0.00156274996697903,0.00222979974932969,0.00328895007260144,0.00436574965715408,0.00527425017207861,0.00607425021007657,0.00675169937312603,0.00720399990677834,0.00750100007280707,0.0078575499355793,0.00826170016080141,0.00848300009965897,0.00847835000604391,0.00841765012592077,0.00838410016149282,0.00834664981812239,0.00834954995661974,0.00851880013942719,0.00889529939740896,0.00939870066940784,0.00985089968889952,0.010058999992907,0.0101262498646975,0.0104077998548746,0.0110236499458551,0.0118009997531772,0.0125333005562425,0.0130462497472763,0.013204999268055,0.0129562001675367,0.0124870501458645,0.0121453497558832,0.011956200003624,0.0116453496739268,0.0112153496593237,0.0109916497021914,0.0112336007878184,0.0120204500854015,0.013187050819397,0.0144023997709155,0.0155495498329401,0.0167508497834206,0.0180902499705553,0.0195257999002934,0.0208147987723351,0.0215978510677814,0.0218051485717297,0.0216810498386621,0.0214757993817329,0.0213658008724451,0.0214442014694214,0.0216955989599228,0.0219050496816635,0.0217666998505592,0.0214115995913744,0.0213390495628119,0.0216180998831987,0.0218794010579586,0.022079000249505,0.0225242506712675,0.0232107006013393,0.0238105989992619,0.0242911502718925,0.0249376520514488,0.0258285496383905,0.0267807003110647,0.0276513993740082,0.0284037999808788,0.0290654003620148,0.0296912007033825,0.0302584990859032,0.0306918490678072,0.0310651995241642,0.0315762981772423,0.0322422981262207,0.0329184010624886,0.0336810983717442,0.0347875505685806,0.0361316986382008,0.0372913479804993,0.0382602997124195,0.0394537523388863,0.0409990027546883,0.0426653027534485,0.0442922487854958,0.0458337962627411,0.047105997800827,0.0478606000542641,0.0483324527740479,0.0491359494626522,0.0503039509057999,0.0512681975960732,0.0517398007214069,0.0518519505858421,0.0518466010689735,0.0519900470972061,0.0525446981191635,0.0536749511957169,0.0550972521305084,0.0562161505222321,0.0570189990103245,0.058067798614502,0.0595742985606194,0.0612988993525505,0.0630770027637482,0.0648890510201454,0.0666170492768288,0.0680707544088364,0.0693356022238731,0.0707338452339172,0.0723202973604202,0.0738708004355431,0.0753404498100281,0.0768860504031181,0.0784949958324432,0.0799878537654877,0.0813982486724854,0.0829645022749901,0.0847174972295761,0.0864666551351547,0.088154599070549,0.0898922979831696,0.0917409062385559,0.0936502516269684,0.0954297482967377,0.0968247503042221,0.0978513062000275,0.0987894982099533,0.0998218953609467,0.100956901907921,0.102087244391441,0.103037849068642,0.103703245520592,0.104099944233894,0.104438297450542,0.105044394731522,0.105975352227688,0.107008546590805,0.107984952628613,0.108897998929024,0.109905302524567,0.111233949661255,0.112788796424866,0.114195302128792,0.115364596247673,0.116502597928047,0.117582052946091,0.118354648351669,0.118923254311085,0.119687497615814,0.120550200343132,0.120965257287025,0.120924100279808,0.120984256267548,0.121396347880363,0.121998600661755,0.122666001319885,0.123364642262459,0.123922847211361,0.124081298708916,0.123926356434822,0.123860999941826,0.124055199325085,0.124370194971561,0.124605804681778,0.124585546553135,0.124252252280712,0.123682156205177,0.12304575741291,0.122534602880478,0.122105598449707,0.121495448052883,0.120531797409058,0.119217753410339,0.117755442857742,0.1164760440588,0.115533351898193,0.114830553531647,0.114033803343773,0.112719595432281,0.110955700278282,0.109275601804256,0.107999801635742,0.10708100348711,0.10616610199213,0.10473445057869,0.102589696645737,0.0999476537108421,0.0972947478294373,0.0951875001192093,0.093587651848793,0.0918995961546898,0.0897824466228485,0.0872896984219551,0.0846175029873848,0.0820278972387314,0.0797949507832527,0.0780998468399048,0.0766647532582283,0.0748609006404877,0.0725065469741821,0.0699318498373032,0.0674391984939575,0.0651717036962509,0.0631256476044655,0.0611694492399693,0.0591080486774445,0.0567555502057076,0.0541619509458542,0.0515991002321243,0.0492769479751587,0.0472375489771366,0.0452152490615845,0.0427788011729717,0.0400393009185791,0.0376056507229805,0.0356957018375397,0.0340613014996052,0.0325779020786285,0.0312987491488457,0.030087448656559,0.028676450252533,0.0272706001996994,0.026435099542141,0.0260409507900476,0.0253029987215996,0.0239825993776321,0.0224910005927086,0.0211001001298428,0.0198150984942913,0.0186534002423286,0.0176552496850491,0.0166465491056442,0.0153148006647825,0.0137515999376774,0.0124233001843095,0.0115132499486208,0.0108420001342893,0.0102034499868751,0.00946765020489693,0.00865160021930933,0.00789690017700195,0.00731119979172945,0.00693249981850386,0.0067463000304997,0.00667745061218739,0.0065434998832643,0.00610945001244545,0.00535794999450445,0.00448295008391142,0.00359539990313351,0.00267240009270608,0.00164485024288297,0.0004358000587672,-0.000973250018432736,-0.00249149999581277,-0.00377979991026223,-0.00438510021194816,-0.00441779987886548,-0.00447519961744547,-0.00465859984979033,-0.00452829990535975,-0.0039056499954313,-0.00298219989053905,-0.00195700000040233,-0.000980749959126115,-0.000299650011584163,-0.000166150042787194,-0.000337549950927496,-0.00020579993724823,0.000185600016266108,0.000167449936270714,-0.000432949862442911,-0.00119534996338189,-0.0018416999373585,-0.00234155007638037,-0.00259799999184906,-0.00246744998730719,-0.00215700012631714,-0.00213365000672638,-0.00236740009859204,-0.00234825001098216,-0.00191049999557436,-0.00133274984546006,-0.000911949900910258,-0.000829949975013733,-0.00104424997698516,-0.00131670001428574,-0.00143715005833656,-0.00130050012376159,-0.000992200104519725,-0.000756599940359592,-0.000788800069130957,-0.00114490010309964,-0.00159215007442981,-0.00171174993738532,-0.00145720015279949,-0.00117624993436038,-0.00113524997141212,-0.00140410009771585,-0.00186884996946901,-0.00226665008813143,-0.00231284997425973,-0.00181025010533631,-0.000960699981078506,-0.000283399829640985,2.03999225050211e-05,0.000140649965032935,0.00031420006416738,0.000710450112819672,0.00132040004245937,0.00195734994485974,0.0023720501922071,0.002356450073421,0.00204295013099909,0.001829499960877,0.00178100005723536,0.0016272000502795,0.00135260005481541,0.00121190014760941,0.00120015011634678,0.00105489999987185,0.000795649946667254,0.000717199873179197,0.000826050061732531,0.000832249876111746,0.000679199933074415,0.000560750137083232,0.000456199981272221,0.000143100041896105,-0.000288599985651672,-0.000465799937956035,-0.00036354991607368,-0.000293550081551075,-0.00022455002181232,0.000191150000318885,0.000836850143969059,0.00116870005149394,0.00115090003237128,0.00126099993940443,0.00157750002108514,0.00174215016886592,0.001720100059174,0.00181449996307492,0.00196080002933741,0.00175610010046512,0.00128044991288334,0.00107769994065166,0.00125559989828616,0.00142694998066872,0.00137380009982735,0.00114849989768118,0.000815849984064698,0.000410150038078427,2.17499909922481e-05,-0.000214200001209974,-0.0002532999496907,-0.000154899898916483,5.4994598031044e-07,0.000146350008435547,0.000287350034341216,0.000486950040794909,0.000756549998186529,0.00104370003100485,0.00129565002862364,0.00147060002200305,0.00152185000479221,0.00142079999204725,0.00126340007409453,0.0010501000797376,0.000855049991514534,0.000722650031093508,0.00060374999884516
-0.00585915008559823,-0.0098240002989769,-0.0135720493271947,-0.0167868994176388,-0.0197582002729177,-0.0226080007851124,-0.0251461006700993,-0.0272189006209373,-0.0275002997368574,-0.0253447499126196,-0.0206980500370264,-0.0135626001283526,-0.00396269978955388,0.00766324950382113,0.0205873008817434,0.0346863493323326,0.0504661500453949,0.0682670995593071,0.0882062986493111,0.110737048089504,0.136481001973152,0.164989188313484,0.194986656308174,0.226581051945686,0.261191755533218,0.299055188894272,0.33912792801857,0.38119500875473,0.425997793674469,0.473642259836197,0.523230910301208,0.572991251945496,0.620868802070618,0.66678124666214,0.71246612071991,0.758617281913757,0.804304718971252,0.847516119480133,0.885409951210022,0.914782047271729,0.932958543300629,0.940897464752197,0.942622303962708,0.939852833747864,0.931441366672516,0.916484117507935,0.89520251750946,0.869354367256165,0.842023015022278,0.81636643409729,0.794836461544037,0.777310371398926,0.76125168800354,0.744224786758423,0.724632501602173,0.702160716056824,0.677368342876434,0.649603486061096,0.617030501365662,0.578815579414368,0.535578727722168,0.489013314247131,0.441484063863754,0.394794106483459,0.35003250837326,0.308194756507874,0.270301699638367,0.237259745597839,0.209787160158157,0.188265696167946,0.172589853405952,0.16171270608902,0.153830751776695,0.147581204771996,0.142286643385887,0.137733802199364,0.133953496813774,0.130560293793678,0.126802653074265,0.122426904737949,0.117741249501705,0.113009601831436,0.108376003801823,0.104168400168419,0.100790202617645,0.0979835018515587,0.0949420556426048,0.0914978981018066,0.0881707519292831,0.0851738452911377,0.0822643488645554,0.0791398510336876,0.0755819976329803,0.0716352984309196,0.0675924494862556,0.0637589022517204,0.0603502988815308,0.057319700717926,0.0544082000851631,0.051519300788641,0.0487541519105434,0.0461746491491795,0.0437716506421566,0.0415707007050514,0.0396284013986588,0.0379096977412701,0.0363164022564888,0.0349243506789207,0.0339462012052536,0.033347349613905,0.032873198390007,0.0325420498847961,0.032617598772049,0.0330095998942852,0.0332584977149963,0.0330731980502605,0.0324342995882034,0.0314652994275093,0.0303605496883392,0.0292222499847412,0.0280546490103006,0.0269058495759964,0.0258908998221159,0.0251406505703926,0.0247703995555639,0.024803601205349,0.0251835994422436,0.0258984491229057,0.0269652996212244,0.0282475501298904,0.0294740498065948,0.0305001493543386,0.0313309505581856,0.0319546982645988,0.0323279015719891,0.0324919000267982,0.0325530506670475,0.0324872992932796,0.0321564003825188,0.0315626487135887,0.0308640506118536,0.0301789995282888,0.0295579489320517,0.0290646497160196,0.0287763997912407,0.0286959987133741,0.0287376008927822,0.0287571996450424,0.0286190006881952,0.0284331496804953,0.028524499386549,0.0290692485868931,0.0299910008907318,0.0309086013585329,0.0312567502260208,0.0308213997632265,0.0298008006066084,0.0285113509744406,0.0272725503891706,0.0262410007417202,0.0253880508244038,0.0245775505900383,0.0236823484301567,0.0229727011173964,0.023021949455142,0.0239422507584095,0.0253505986183882,0.027003850787878,0.0288562495261431,0.0306581482291222,0.0319704003632069,0.0326244980096817,0.0327644497156143,0.0325531475245953,0.0320938490331173,0.0314117968082428,0.0304968003183603,0.0294894985854626,0.0286245010793209,0.0278094504028559,0.0267086997628212,0.0254945997148752,0.024762749671936,0.0244424007833004,0.0238591991364956,0.0230755005031824,0.0228671487420797,0.0232922993600368,0.0236562006175518,0.023810850456357,0.0242315493524075,0.0250235497951508,0.0258342009037733,0.0264910012483597,0.027071800082922,0.0275443010032177,0.0277334004640579,0.0275489985942841,0.0270425491034985,0.0264007989317179,0.0258755013346672,0.0255047995597124,0.0251617021858692,0.0250274986028671,0.0255141519010067,0.0264815986156464,0.0273134484887123,0.0280042998492718,0.0291593503206968,0.0309092998504639,0.0328188017010689,0.0346143469214439,0.0362370014190674,0.0373244993388653,0.0373468995094299,0.0366607494652271,0.0363531485199928,0.0365581512451172,0.0364175960421562,0.0356004014611244,0.0344774499535561,0.0332977995276451,0.0321259498596191,0.0314188003540039,0.0318601503968239,0.0331300497055054,0.0340454503893852,0.0343578010797501,0.034826997667551,0.0357205010950565,0.036685898900032,0.0377421006560326,0.0392740517854691,0.0410214513540268,0.042170949280262,0.0427312031388283,0.0435240492224693,0.0447710007429123,0.0460061021149158,0.0471400506794453,0.0485088489949703,0.0500022955238819,0.0510846450924873,0.0517445467412472,0.0525164976716042,0.0536202006042004,0.0548654496669769,0.0561341978609562,0.0574687980115414,0.0589483976364136,0.0606014467775822,0.062186349183321,0.0632787495851517,0.0638414025306702,0.0642208009958267,0.0645571947097778,0.0647332966327667,0.0647572502493858,0.0647729486227036,0.0647192448377609,0.064366951584816,0.0638056993484497,0.0634503066539764,0.0635820478200912,0.0642504543066025,0.0653466582298279,0.0666800960898399,0.0682163089513779,0.0700480490922928,0.0720414966344833,0.0738724023103714,0.0755249038338661,0.0772468000650406,0.0788696557283401,0.0798776596784592,0.0803595557808876,0.0809430032968521,0.0815739035606384,0.0815568566322327,0.0809347033500671,0.0805304497480392,0.0807289481163025,0.0813366025686264,0.0822339951992035,0.0834387540817261,0.0847041457891464,0.0855879038572311,0.0861335545778275,0.0868496000766754,0.0879453048110008,0.0892252996563911,0.0904335975646973,0.0913669541478157,0.0919850543141365,0.0923999547958374,0.0927182585000992,0.0930129885673523,0.0933640003204346,0.093826949596405,0.0942694991827011,0.0944550558924675,0.0945441424846649,0.0950524508953094,0.0961832404136658,0.0977204442024231,0.0992704033851624,0.100449696183205,0.101395301520824,0.102686397731304,0.104521796107292,0.106590799987316,0.108379699289799,0.109352253377438,0.109368994832039,0.108769856393337,0.108288645744324,0.108758494257927,0.110016852617264,0.110994800925255,0.111166551709175,0.110769905149937,0.110240399837494,0.110015898942947,0.110320247709751,0.111067451536655,0.11169595271349,0.111356899142265,0.109838850796223,0.107652850449085,0.105450697243214,0.103784501552582,0.102725446224213,0.101877450942993,0.100809350609779,0.0992076545953751,0.0970539525151253,0.0946289971470833,0.0923513546586037,0.090583048760891,0.0890149474143982,0.0868237018585205,0.0839158967137337,0.0809789523482323,0.0784394964575768,0.0763102993369102,0.0746171027421951,0.0734031498432159,0.0723196491599083,0.0707761496305466,0.068955697119236,0.0676845982670784,0.0668958500027657,0.0656341016292572,0.0636134967207909,0.0613540001213551,0.0591719001531601,0.0570243000984192,0.0548942983150482,0.0528163500130177,0.050586249679327,0.0478541031479836,0.0447833985090256,0.0419971011579037,0.0397058501839638,0.0376401022076607,0.0356520488858223,0.0338339507579803,0.0323937013745308,0.0315423011779785,0.0311704985797405,0.0309031009674072,0.030638201162219,0.0305384490638971,0.0304513983428478,0.0299265496432781,0.0288574490696192,0.0275022499263287,0.0259211994707584,0.0239540003240108,0.0216897502541542,0.0194368008524179,0.0171355493366718,0.0144734000787139,0.011935300193727,0.010627000592649,0.0105203995481133,0.0105007002130151,0.0103084994480014,0.0106443995609879,0.0116502493619919,0.0127901006489992,0.013892900198698,0.0151807498186827,0.0163353495299816,0.0165993496775627,0.0161138493567705,0.0158273000270128,0.0157954003661871,0.0151729499921203,0.0138774504885077,0.0126719493418932,0.0118315005674958,0.0110592497512698,0.0104908999055624,0.0106619503349066,0.0113761993125081,0.0117880497127771,0.0118639003485441,0.0123778507113457,0.0134324999526143,0.0143730500712991,0.0149198500439525,0.0152782499790192,0.0154394498094916,0.0151573996990919,0.0145503496751189,0.014071099460125,0.0137841003015637,0.0133323995396495,0.0125303994864225,0.0114813996478915,0.010458149947226,0.00979655049741268,0.0095923999324441,0.00968605000525713,0.0099049499258399,0.010117799974978,0.0102070504799485,0.0101450504735112,0.0103280497714877,0.0113918492570519,0.0131401997059584,0.0146027998998761,0.0153357004746795,0.0155942495912313,0.0157233998179436,0.0159880500286818,0.0165049992501736,0.017204450443387,0.0177411492913961,0.0176384504884481,0.0169545505195856,0.0162388999015093,0.0156967993825674,0.0151269007474184,0.014512600377202,0.0140559002757072,0.0137237505987287,0.0132651999592781,0.0127328503876925,0.0124749001115561,0.0125807505100965,0.0128274504095316,0.0130163002759218,0.0130327502265573,0.0127413999289274,0.0120465997606516,0.0112402001395822,0.0108842002227902,0.0110001498833299,0.0111052496358752,0.0111703500151634,0.0116261504590511,0.0124288499355316,0.0130682997405529,0.0135420002043247,0.0143275000154972,0.0152984000742435,0.0157539509236813,0.0156158003956079,0.0154349999502301,0.0152227003127337,0.0144512001425028,0.0132280495017767,0.0122973993420601,0.0118652991950512,0.0115091502666473,0.0109828999266028,0.0103487996384501,0.00969734974205494,0.00907524954527617,0.00847754999995232,0.0078768003731966,0.00735270045697689,0.00704650022089481,0.00685475021600723,0.0064793499186635,0.00594194978475571,0.00557105010375381,0.0054369498975575,0.00532170012593269,0.00515895010903478,0.00505469972267747,0.00492855021730065,0.00453349994495511,0.00389320007525384,0.00327880005352199,0.00281505007296801,0.00242635002359748,0.00197824998758733
0.00479375012218952,0.0084672998636961,0.0127918506041169,0.0174358002841473,0.0221181996166706,0.0265831016004086,0.0306930020451546,0.0348626971244812,0.0391793996095657,0.0432500466704369,0.0461986511945724,0.0477412007749081,0.0482737012207508,0.0481525510549545,0.0475739985704422,0.0468086525797844,0.046111948788166,0.0451328009366989,0.0430475026369095,0.0396882519125938,0.0355648994445801,0.0308186989277601,0.0251060537993908,0.0181736554950476,0.00997685454785824,0.000581897795200348,-0.00997155345976353,-0.0221219975501299,-0.0367455035448074,-0.0545389428734779,-0.075687050819397,-0.0991407558321953,-0.123065508902073,-0.147355258464813,-0.173615783452988,-0.202588900923729,-0.233698785305023,-0.265815258026123,-0.297478288412094,-0.327036768198013,-0.353063613176346,-0.375879853963852,-0.397234678268433,-0.417501032352448,-0.435459911823273,-0.450245320796967,-0.461675882339478,-0.469638794660568,-0.474058508872986,-0.475387573242188,-0.474525660276413,-0.472010016441345,-0.467775195837021,-0.460999667644501,-0.450459808111191,-0.436089664697647,-0.418984889984131,-0.399857521057129,-0.378831058740616,-0.356165379285812,-0.332382023334503,-0.308041721582413,-0.28369015455246,-0.259871304035187,-0.237096905708313,-0.215715035796165,-0.195898503065109,-0.177726358175278,-0.161278337240219,-0.146932005882263,-0.13517914712429,-0.125596195459366,-0.116986751556396,-0.108980797231197,-0.102064847946167,-0.0961099043488503,-0.0903831049799919,-0.0850692093372345,-0.08116315305233,-0.0785105973482132,-0.0758063495159149,-0.0725459977984428,-0.0692015960812569,-0.0659732073545456,-0.0626639947295189,-0.0594251975417137,-0.0567111484706402,-0.0543576031923294,-0.0516170486807823,-0.0482265502214432,-0.0445494502782822,-0.0410730540752411,-0.0381930992007256,-0.0358543023467064,-0.033590953797102,-0.0310472026467323,-0.0281301997601986,-0.0250990018248558,-0.0224447995424271,-0.0203253999352455,-0.0185280479490757,-0.0168883502483368,-0.0153695493936539,-0.013960100710392,-0.0126756001263857,-0.0116725992411375,-0.0111644994467497,-0.0109710497781634,-0.0105879986658692,-0.00991464965045452,-0.0092604998499155,-0.00864825025200844,-0.00779649894684553,-0.00674539990723133,-0.00585929909721017,-0.00520609924569726,-0.00455200066789985,-0.00396279944106936,-0.00378034962341189,-0.00393084948882461,-0.00394144980236888,-0.00369075080379844,-0.00345339998602867,-0.00332915084436536,-0.00318530015647411,-0.00300479959696531,-0.00286349980160594,-0.00249254982918501,-0.00139130023308098,0.000283949775621295,0.0017701496835798,0.00278205028735101,0.00360915018245578,0.00442089978605509,0.00518019963055849,0.00600019982084632,0.00709965033456683,0.00826890021562576,0.00895429961383343,0.00912905018776655,0.00929995067417622,0.00966270081698895,0.0100122503936291,0.0102246506139636,0.0103457998484373,0.0104578994214535,0.0106056006625295,0.0106297004967928,0.0102624008432031,0.0096748499199748,0.00943889934569597,0.00982914958149195,0.0107266996055841,0.0119286999106407,0.013191849924624,0.0140984999015927,0.0141973001882434,0.0137062501162291,0.013400649651885,0.0134638994932175,0.0134257497265935,0.0130676506087184,0.0125917494297028,0.0123976999893785,0.0129040498286486,0.0140546504408121,0.0153863001614809,0.0167901497334242,0.0185180492699146,0.0204501487314701,0.0220729000866413,0.0231227986514568,0.0236545503139496,0.0236712489277124,0.023122750222683,0.02227439917624,0.0216592997312546,0.0215164013206959,0.0216984003782272,0.0218615513294935,0.0216493997722864,0.0212364997714758,0.0212319493293762,0.02174730040133,0.0223535001277924,0.0228384993970394,0.0232983492314816,0.0237465016543865,0.0240814015269279,0.0243486501276493,0.024737149477005,0.0252980496734381,0.025917399674654,0.026485301554203,0.0269606001675129,0.0274583995342255,0.0281747989356518,0.0289993993937969,0.0295884497463703,0.0300487987697124,0.0308908000588417,0.0321559980511665,0.0334141999483109,0.0346268974244595,0.036141250282526,0.0378060005605221,0.0390232503414154,0.0398366004228592,0.0409352481365204,0.0425798967480659,0.0444777011871338,0.0463629513978958,0.0480820015072823,0.0493502989411354,0.0498796999454498,0.050128847360611,0.0510848499834538,0.0526446513831615,0.0536642000079155,0.0537717007100582,0.0535374507308006,0.0533372983336449,0.0532161518931389,0.0534867979586124,0.0546254515647888,0.0562590509653091,0.0573320500552654,0.0577833987772465,0.0585465952754021,0.0598710030317307,0.0612147003412247,0.0624900013208389,0.0641132518649101,0.0659520477056503,0.0673637539148331,0.0683993995189667,0.0697896480560303,0.0716813951730728,0.0735751986503601,0.0753363519906998,0.0772529467940331,0.0792596936225891,0.0809334516525269,0.0822482407093048,0.0835912972688675,0.0850699990987778,0.0864807516336441,0.0878795981407166,0.0895725935697556,0.0915120989084244,0.0932754427194595,0.0945872515439987,0.0954404547810555,0.0960582047700882,0.0967881977558136,0.0977150946855545,0.0986308008432388,0.0993018448352814,0.0995658561587334,0.0994492471218109,0.0991693437099457,0.099022701382637,0.0992798954248428,0.099880650639534,0.100470647215843,0.100856550037861,0.101113796234131,0.101565107703209,0.102621152997017,0.104165598750114,0.105614706873894,0.106770008802414,0.10785810649395,0.108837842941284,0.109416350722313,0.109806858003139,0.110607698559761,0.111556299030781,0.11165314912796,0.110901296138763,0.110319748520851,0.110255151987076,0.110222399234772,0.109949000179768,0.109520152211189,0.108916446566582,0.108011201024055,0.107027247548103,0.10646790266037,0.106383100152016,0.106334395706654,0.105988994240761,0.105255052447319,0.104235745966434,0.103155046701431,0.102103352546692,0.100984901189804,0.0995592027902603,0.0975285470485687,0.094852402806282,0.091785155236721,0.0887133479118347,0.0860380530357361,0.083866149187088,0.0819578468799591,0.0798266977071762,0.0769461989402771,0.0734719038009644,0.0701678991317749,0.0673843026161194,0.0649099051952362,0.0624094009399414,0.0595562532544136,0.0561279952526093,0.0521201528608799,0.0481081530451775,0.0450182966887951,0.042856752872467,0.0407305993139744,0.0382033511996269,0.0354676991701126,0.0326792038977146,0.0298856981098652,0.0274135507643223,0.0257253497838974,0.0244627520442009,0.0225979015231133,0.0199977494776249,0.0174707509577274,0.0153945982456207,0.0135418009012938,0.0117487479001284,0.0100183496251702,0.0082564502954483,0.00628695078194141,0.00417675077915192,0.00222280062735081,0.000570250675082207,-0.00085775088518858,-0.00226115062832832,-0.00384699832648039,-0.00545680010691285,-0.00664694840088487,-0.0073854997754097,-0.00803499948233366,-0.00859229825437069,-0.00872285012155771,-0.00865314900875092,-0.00906355027109385,-0.00976549834012985,-0.00981870014220476,-0.00932254921644926,-0.0093767000362277,-0.0101256016641855,-0.010687300004065,-0.0108171999454498,-0.0110223004594445,-0.0113573996350169,-0.011395450681448,-0.011314750649035,-0.0118333995342255,-0.0128652006387711,-0.0135333994403481,-0.0135739501565695,-0.0134707996621728,-0.0135949486866593,-0.0140079502016306,-0.0145368995144963,-0.0148708987981081,-0.0148662002757192,-0.0145715000107884,-0.0140168992802501,-0.0132307503372431,-0.0125196995213628,-0.0123655488714576,-0.012734048999846,-0.013106350786984,-0.0132921002805233,-0.0135140996426344,-0.0139376502484083,-0.0145852006971836,-0.0154682509601116,-0.0165514014661312,-0.0174726992845535,-0.0176734998822212,-0.0172010008245707,-0.0166546013206244,-0.0161761995404959,-0.0154050011187792,-0.0143052507191896,-0.0132221002131701,-0.0122817996889353,-0.0113654499873519,-0.0106079503893852,-0.0103492503985763,-0.0104372501373291,-0.0103123001754284,-0.010041399858892,-0.0102782500907779,-0.0110748494043946,-0.0118474503979087,-0.0124269993975759,-0.0131024504080415,-0.0137410992756486,-0.013824550434947,-0.0134700005874038,-0.0133777502924204,-0.0135970003902912,-0.0134932491928339,-0.0128544000908732,-0.0120257502421737,-0.0113468505442142,-0.0110080502927303,-0.0110397497192025,-0.0113155003637075,-0.0115770511329174,-0.0115377008914948,-0.0112691996619105,-0.0111736003309488,-0.0114756003022194,-0.0120989009737968,-0.0126787507906556,-0.0127224493771791,-0.0122385006397963,-0.0117225497961044,-0.0114715499803424,-0.0114753004163504,-0.0116743501275778,-0.0119692496955395,-0.0120026506483555,-0.0112942503765225,-0.0099932998418808,-0.00881849974393845,-0.00806690007448196,-0.0075143501162529,-0.00700690038502216,-0.00655085034668446,-0.00607259944081306,-0.0054498496465385,-0.00487595004960895,-0.00477644987404346,-0.005112050101161,-0.00541419954970479,-0.00562109984457493,-0.00607999972999096,-0.00672269985079765,-0.00707369996234775,-0.00711385020986199,-0.0072988998144865,-0.00777254998683929,-0.00828840024769306,-0.00868644937872887,-0.0089732501655817,-0.00916749984025955,-0.00928965024650097,-0.00947120040655136,-0.00988150015473366,-0.0103214997798204,-0.0103041995316744,-0.00977724976837635,-0.0091129494830966,-0.00834315083920956,-0.00717584975063801,-0.00583204999566078,-0.00498149963095784,-0.00465099979192019,-0.00421989988535643,-0.00349089992232621,-0.00278665032237768,-0.00226669991388917,-0.00187360029667616,-0.00179779995232821,-0.00238970015197992,-0.00333914998918772,-0.00377859966829419,-0.0035219001583755,-0.00314555037766695,-0.00308409985154867,-0.00342290010303259,-0.00397424958646297,-0.00439205020666122,-0.00455464981496334,-0.00456460006535053,-0.00435990002006292,-0.00373919983394444,-0.00284484983421862,-0.00213825004175305,-0.00181724992580712,-0.00173664989415556,-0.00167655001860112,-0.00144559994805604,-0.00103025010321289,-0.000598599959630519,-0.00036954993265681,-0.00050489988643676,-0.000808199809398502,-0.00104419991839677,-0.000975849980022758,-0.000609149981755763,-0.000176750021637417
-0.00360665004700422,-0.00477549992501736,-0.0056818500161171,-0.00632679974660277,-0.00690949987620115,-0.0076346998102963,-0.00862940028309822,-0.00936490017920732,-0.00969319976866245,-0.0099345501512289,-0.0107564497739077,-0.012151500210166,-0.0134915001690388,-0.0147657506167889,-0.0166123006492853,-0.0192068498581648,-0.0222018491476774,-0.0255871992558241,-0.0296767987310886,-0.0341945514082909,-0.0384000986814499,-0.0425129979848862,-0.0476592443883419,-0.0542386472225189,-0.0617511495947838,-0.069732703268528,-0.077944353222847,-0.0861930847167969,-0.0942970961332321,-0.102121062576771,-0.109568268060684,-0.116508565843105,-0.122671313583851,-0.127291351556778,-0.129256308078766,-0.128056094050407,-0.123881697654724,-0.117070540785789,-0.10794410854578,-0.0967123508453369,-0.0834586396813393,-0.0681735500693321,-0.0508070960640907,-0.0314447283744812,-0.0103854984045029,0.0117189045995474,0.0340328365564346,0.0563461408019066,0.0791327953338623,0.102973453700542,0.128163754940033,0.153728350996971,0.177623391151428,0.198540657758713,0.216146886348724,0.230241850018501,0.240617841482162,0.247343093156815,0.250609040260315,0.249837845563889,0.244058698415756,0.234301805496216,0.223343446850777,0.212287798523903,0.200374007225037,0.187626644968987,0.175108388066292,0.163279548287392,0.151835352182388,0.140694797039032,0.130092546343803,0.11995380371809,0.109910450875759,0.0999907031655312,0.0906674489378929,0.0823588967323303,0.0752522945404053,0.0690999999642372,0.063389852643013,0.0582360997796059,0.0542940497398376,0.0515286028385162,0.0491940006613731,0.0469818003475666,0.0451125018298626,0.0435562990605831,0.0419726520776749,0.0402506999671459,0.0385349504649639,0.0367849506437778,0.0347709506750107,0.032498549669981,0.030230700969696,0.0281520001590252,0.0262923501431942,0.0245526004582644,0.022766100242734,0.0209164991974831,0.0191505998373032,0.0176120009273291,0.0163620505481958,0.015230449847877,0.0138904498890042,0.0123111996799707,0.0107707995921373,0.00945729948580265,0.00840689986944199,0.007653150241822,0.00722100026905537,0.00695135025307536,0.00657910015434027,0.00621895026415586,0.00629770010709763,0.00679669994860888,0.00722120003774762,0.00723909959197044,0.0068051996640861,0.00602139998227358,0.00507414992898703,0.00412185024470091,0.00326015008613467,0.0024965493939817,0.00177829992026091,0.00112874945625663,0.00066129956394434,0.000493699684739113,0.000710499938577414,0.00129834935069084,0.00213409983552992,0.00300324964337051,0.00365794985555112,0.00402855034917593,0.00423544971272349,0.0044235996901989,0.00468949973583221,0.00496329972520471,0.00504154991358519,0.00483970018103719,0.00442760018631816,0.0039194505661726,0.00342605053447187,0.0029753006529063,0.00251065008342266,0.0019643499981612,0.00130489957518876,0.000645199441350996,0.000189800019143149,-8.7899541540537e-05,-0.000423299556132406,-0.000844950671307743,-0.00113940029405057,-0.00112065090797842,-0.000732200162019581,-0.00018400012049824,9.98496543616056e-05,-0.000172700034454465,-0.00107629992999136,-0.0024746498093009,-0.00404905062168837,-0.00540750008076429,-0.00622395053505898,-0.00668565044179559,-0.00736305117607117,-0.00824130047112703,-0.00870174914598465,-0.00841314904391766,-0.00747719872742891,-0.00611644936725497,-0.00462384987622499,-0.00347195053473115,-0.00318529969081283,-0.00372310029342771,-0.00452234968543053,-0.00528645049780607,-0.00610874965786934,-0.00717570073902607,-0.00861640088260174,-0.0102004008367658,-0.0114478012546897,-0.0123785492032766,-0.0134641006588936,-0.0146904997527599,-0.01558274962008,-0.0162388999015093,-0.0172826014459133,-0.0186377000063658,-0.0195592492818832,-0.0199788995087147,-0.0205372981727123,-0.0213620495051146,-0.0219938494265079,-0.0223146509379148,-0.0226163994520903,-0.0229558013379574,-0.0231289975345135,-0.0232226997613907,-0.0236088000237942,-0.0243754982948303,-0.0252785515040159,-0.0261144004762173,-0.0268125981092453,-0.0274276975542307,-0.0280806012451649,-0.0287298001348972,-0.0292077511548996,-0.0295969992876053,-0.0301860515028238,-0.030918300151825,-0.0314098447561264,-0.0315715968608856,-0.0316585004329681,-0.0318379513919353,-0.0321590006351471,-0.032853402197361,-0.0342367999255657,-0.0360114499926567,-0.0373940505087376,-0.0383264496922493,-0.0394830033183098,-0.0410938002169132,-0.0428494513034821,-0.0447025001049042,-0.046864353120327,-0.0489895008504391,-0.0502998530864716,-0.0508891493082047,-0.0516773499548435,-0.0529184974730015,-0.0541208982467651,-0.0552229955792427,-0.0566082000732422,-0.0579928979277611,-0.0585425496101379,-0.0584538504481316,-0.0588915459811687,-0.0601556003093719,-0.0615540482103825,-0.062723696231842,-0.0637901946902275,-0.064680352807045,-0.0651398450136185,-0.0654906034469604,-0.0665214508771896,-0.0682994574308395,-0.0701303035020828,-0.0715916007757187,-0.0727114528417587,-0.0736512020230293,-0.0745979994535446,-0.0756538063287735,-0.076838955283165,-0.07821224629879,-0.0798400491476059,-0.0815484970808029,-0.0830167979001999,-0.0844009965658188,-0.086258202791214,-0.0886239558458328,-0.0909890457987785,-0.0931244492530823,-0.095165953040123,-0.0971235036849976,-0.0988271981477737,-0.100196249783039,-0.101263552904129,-0.102002449333668,-0.102320998907089,-0.10221279412508,-0.101791456341743,-0.101287290453911,-0.100962892174721,-0.100783288478851,-0.100482195615768,-0.100156351923943,-0.100230544805527,-0.100723445415497,-0.101263299584389,-0.101886495947838,-0.102998152375221,-0.10441480576992,-0.105409353971481,-0.105856344103813,-0.106283701956272,-0.106943503022194,-0.107674345374107,-0.108280144631863,-0.108635693788528,-0.108723849058151,-0.108634904026985,-0.108523093163967,-0.108544699847698,-0.108653008937836,-0.108620159327984,-0.10833065956831,-0.107852950692177,-0.107433050870895,-0.107387408614159,-0.107681393623352,-0.107970051467419,-0.108175590634346,-0.1084925532341,-0.108824446797371,-0.108785346150398,-0.108265459537506,-0.107480049133301,-0.106601104140282,-0.105660498142242,-0.10453400015831,-0.103007607161999,-0.101066395640373,-0.0989172980189323,-0.0967867001891136,-0.094863548874855,-0.0932642966508865,-0.0919699445366859,-0.0906063467264175,-0.0885948091745377,-0.0859757512807846,-0.0833744034171104,-0.0810406506061554,-0.0787585005164146,-0.0764451995491982,-0.0741863027215004,-0.0717784538865089,-0.0688260495662689,-0.0655809491872787,-0.062873400747776,-0.0609955489635468,-0.0595707446336746,-0.0581502988934517,-0.0563912987709045,-0.0541779473423958,-0.0516342483460903,-0.0490588471293449,-0.0468367487192154,-0.045153945684433,-0.0439165979623795,-0.0427099466323853,-0.0409841500222683,-0.038833349943161,-0.0369408987462521,-0.0355748012661934,-0.0344758480787277,-0.0334146022796631,-0.0322711989283562,-0.0307978000491858,-0.0287247486412525,-0.026419248431921,-0.0247166492044926,-0.0235844999551773,-0.0221790000796318,-0.0204091500490904,-0.0189781002700329,-0.017985999584198,-0.0168725028634071,-0.0155870988965034,-0.014634502120316,-0.0140904998406768,-0.0135629512369633,-0.0130185512825847,-0.0128026008605957,-0.0128885004669428,-0.0128715010359883,-0.012694850564003,-0.0126611990854144,-0.0127523494884372,-0.0125831495970488,-0.011901299469173,-0.0107243992388248,-0.00939050037413836,-0.00838339980691671,-0.00758259976282716,-0.00637905020266771,-0.00488550076261163,-0.0039128502830863,-0.00366565026342869,-0.00366914994083345,-0.00377780036069453,-0.00424470007419586,-0.00499384989961982,-0.00564919970929623,-0.0063791498541832,-0.00776959955692291,-0.0094667999073863,-0.0102816997095942,-0.00996099971234798,-0.00927469972521067,-0.00859570037573576,-0.00773000018671155,-0.00665544951334596,-0.00559320067986846,-0.00455870013684034,-0.00337595003657043,-0.00219164998270571,-0.00145274982787669,-0.00130515033379197,-0.00154750002548099,-0.00204619998112321,-0.00277655012905598,-0.00357415014877915,-0.00417305063456297,-0.00460790004581213,-0.00516114989295602,-0.00574820023030043,-0.00594284990802407,-0.00569090014323592,-0.0053226500749588,-0.00488679995760322,-0.00414074957370758,-0.00317590008489788,-0.00241115014068782,-0.00193795026279986,-0.00150255020707846,-0.00108714995440096,-0.000936199794523418,-0.00108395016286522,-0.0013355998089537,-0.00166709977202117,-0.00223980005830526,-0.00305839953944087,-0.00393389957025647,-0.00467474944889545,-0.00515755033120513,-0.00541829923167825,-0.00560534931719303,-0.00570355029776692,-0.00556839955970645,-0.00534354988485575,-0.00538124982267618,-0.00551145011559129,-0.00510914949700236,-0.00409780070185661,-0.00299270008690655,-0.00206950004212558,-0.00126925040967762,-0.000645100371912122,-0.000361050013452768,-0.000236499821767211,0.000179650145582855,0.000858350191265345,0.00128745008260012,0.00120774994138628,0.000707500032149255,-0.000139800133183599,-0.00129100005142391,-0.00243160012178123,-0.00308179995045066,-0.00332335010170937,-0.00375749985687435,-0.00461465027183294,-0.00561689957976341,-0.00632004952058196,-0.00631944974884391,-0.00573359988629818,-0.00516755040735006,-0.00508400006219745,-0.00560229970142245,-0.00631819991394877,-0.0064842002466321,-0.00590304983779788,-0.00498215015977621,-0.00405415007844567,-0.00324594997800887,-0.00263224961236119,-0.00222459947690368,-0.00177199998870492,-0.000875399797223508,0.000355100026354194,0.00132624991238117,0.0017249999800697,0.00161719974130392,0.00108249997720122,0.000189400161616504,-0.00074004998896271,-0.00123109994456172,-0.00133170012850314,-0.00156955036800355,-0.00211469968780875,-0.00268350029364228,-0.00299634994007647,-0.00293375016190112,-0.002700449898839,-0.00271149980835617,-0.00296709989197552,-0.00306319980882108,-0.0028550501447171,-0.00253915041685104,-0.00231635011732578,-0.0022979499772191,-0.00246895011514425,-0.00269340025261045,-0.0027778500225395,-0.00254819984547794,-0.00209305016323924,-0.00171870004851371,-0.00152270006947219,-0.00140069995541126,-0.0012098498409614,-0.000931849994231015,-0.000636950018815696
-0.00554085010662675,-0.00856870040297508,-0.0115000493824482,-0.0140944002196193,-0.0164279993623495,-0.0185611005872488,-0.0204828009009361,-0.0219986997544765,-0.0227214992046356,-0.0225022491067648,-0.0213388502597809,-0.0190950985997915,-0.0155689995735884,-0.0110449511557817,-0.00620839977636933,-0.00125054968520999,0.00419575022533536,0.0104174995794892,0.0175607018172741,0.0260250512510538,0.0363049991428852,0.0479544997215271,0.0597667545080185,0.0715219527482986,0.0840242505073547,0.0975040048360825,0.111516550183296,0.126141309738159,0.142011895775795,0.159244745969772,0.177276939153671,0.19529764354229,0.212677299976349,0.23025543987751,0.250091791152954,0.273178517818451,0.299049019813538,0.326496660709381,0.353842586278915,0.379286766052246,0.401381641626358,0.420574843883514,0.4388367831707,0.456633448600769,0.472651600837708,0.485729604959488,0.495427846908569,0.502381443977356,0.50821840763092,0.51487785577774,0.52399206161499,0.535091876983643,0.54572069644928,0.55368447303772,0.557655930519104,0.557343244552612,0.553184509277344,0.544952511787415,0.53165590763092,0.51253867149353,0.487526297569275,0.458014905452728,0.426553249359131,0.394782304763794,0.363229990005493,0.332554757595062,0.303717702627182,0.277429729700089,0.254057943820953,0.233804300427437,0.216681361198425,0.202238604426384,0.18964995443821,0.178339198231697,0.168092042207718,0.158874601125717,0.150719702243805,0.143454000353813,0.136740148067474,0.130521893501282,0.124986350536346,0.11996890604496,0.114998504519463,0.110072493553162,0.105628199875355,0.101654902100563,0.0976722538471222,0.0935351997613907,0.0894791483879089,0.0854948461055756,0.0813093483448029,0.076935350894928,0.0726865977048874,0.0686929002404213,0.0648441463708878,0.0610534995794296,0.0573079995810986,0.0536046996712685,0.0499663986265659,0.0465663000941277,0.043655451387167,0.0411439500749111,0.0386442504823208,0.0360592007637024,0.0336304977536201,0.0315406993031502,0.0298464000225067,0.0286096483469009,0.027871198952198,0.027412049472332,0.0268395002931356,0.0261666495352983,0.0257846005260944,0.0257702991366386,0.025807099416852,0.0255625993013382,0.0248277001082897,0.0236946996301413,0.0225014500319958,0.0214307513087988,0.0204594507813454,0.0195622500032187,0.018758300691843,0.0180972497910261,0.0176587998867035,0.0175595004111528,0.0178989004343748,0.0185365490615368,0.0191373005509377,0.0195761490613222,0.0199614502489567,0.0203201491385698,0.0205661505460739,0.0206894986331463,0.0207551997154951,0.0207154992967844,0.0204280503094196,0.0199165996164083,0.0193665996193886,0.0188424494117498,0.0182710494846106,0.0176580995321274,0.0170996505767107,0.0166130494326353,0.0161390006542206,0.0157174002379179,0.0154730007052422,0.0153833003714681,0.0152809005230665,0.0150995496660471,0.0149167999625206,0.0148779498413205,0.0151051003485918,0.0154033005237579,0.0153248496353626,0.0147198000922799,0.0137786008417606,0.0126519501209259,0.0114145493134856,0.0102997003123164,0.00962164998054504,0.00923254992812872,0.00861064996570349,0.00775850052013993,0.00722564989700913,0.00730035081505775,0.00788580067455769,0.00881465058773756,0.0098905498161912,0.0107416491955519,0.0109213003888726,0.0104560991749167,0.00982515048235655,0.00932934880256653,0.0089565496891737,0.00847459957003593,0.00757389981299639,0.00634020008146763,0.00520649924874306,0.00428155018016696,0.00333609944209456,0.00241959979757667,0.00183204980567098,0.00139740016311407,0.000549800228327513,-0.000595899298787117,-0.00129265012219548,-0.0014246990904212,-0.00155499950051308,-0.00184694956988096,-0.00197944883257151,-0.00188534986227751,-0.00180959980934858,-0.0018048994243145,-0.0017179986461997,-0.001639099791646,-0.00189779978245497,-0.00259440019726753,-0.00354785099625587,-0.00455230101943016,-0.00546590052545071,-0.00630810018628836,-0.00720409955829382,-0.00806370098143816,-0.00861384999006987,-0.00884759984910488,-0.00901445001363754,-0.00913110002875328,-0.00897754915058613,-0.00857000052928925,-0.0081763993948698,-0.00790335051715374,-0.00769380107522011,-0.00773259997367859,-0.00838260166347027,-0.00952875055372715,-0.0106176510453224,-0.0114795509725809,-0.0123767014592886,-0.0133803002536297,-0.0143305510282516,-0.0153033994138241,-0.0165513511747122,-0.0177992004901171,-0.0183527506887913,-0.0182323474436998,-0.0181642509996891,-0.0184087008237839,-0.0186748020350933,-0.018953999504447,-0.0195230022072792,-0.0201210994273424,-0.0200598500669003,-0.0194823499768972,-0.0193041488528252,-0.0197168979793787,-0.0201181508600712,-0.0203234013170004,-0.0206498987972736,-0.0210405513644218,-0.0210744515061378,-0.0208892039954662,-0.0211409516632557,-0.0219273529946804,-0.0227284021675587,-0.0232478007674217,-0.0235420502722263,-0.0236942023038864,-0.0237506031990051,-0.0237879008054733,-0.0239097513258457,-0.0241601504385471,-0.0245156474411488,-0.0249365009367466,-0.0254046991467476,-0.0260284021496773,-0.0269841998815536,-0.0281854495406151,-0.0293072462081909,-0.0302172489464283,-0.0310275517404079,-0.0318707004189491,-0.0328081995248795,-0.0336910486221313,-0.0342047512531281,-0.0341901481151581,-0.0337019041180611,-0.0329230949282646,-0.0321033522486687,-0.0313996970653534,-0.0308303944766521,-0.030249297618866,-0.0294436998665333,-0.0285479500889778,-0.0279967449605465,-0.0279220454394817,-0.0281198024749756,-0.0285178013145924,-0.0291924476623535,-0.0299677029252052,-0.0304504483938217,-0.0305781476199627,-0.030621599406004,-0.0306537002325058,-0.0305062495172024,-0.0301303490996361,-0.0296340994536877,-0.0290724486112595,-0.0284273996949196,-0.0277401991188526,-0.0271097011864185,-0.0265536978840828,-0.0260024517774582,-0.0254078507423401,-0.0247858501970768,-0.024277750402689,-0.024072702974081,-0.0240387991070747,-0.0237833522260189,-0.0232567973434925,-0.022753044962883,-0.0223010517656803,-0.0216296538710594,-0.0206337533891201,-0.0194279514253139,-0.0180930010974407,-0.0166193023324013,-0.0149334967136383,-0.0129522010684013,-0.0107759013772011,-0.00866539776325226,-0.00675779953598976,-0.00503604859113693,-0.00349300354719162,-0.00212004780769348,-0.000697247684001923,0.00111999735236168,0.00324045307934284,0.00517989881336689,0.00679134950041771,0.00832009874284267,0.00989340245723724,0.0114577990025282,0.0130374506115913,0.0147217493504286,0.0163587499409914,0.0175793021917343,0.0182075500488281,0.0183472521603107,0.0183199979364872,0.0185628011822701,0.0192807484418154,0.0203847475349903,0.0215877499431372,0.0224979519844055,0.0228961519896984,0.0228225011378527,0.0226457491517067,0.0228926502168179,0.0234973486512899,0.0238409005105495,0.0236625000834465,0.0231779515743256,0.0226456001400948,0.0222661010921001,0.0222136005759239,0.0225765500217676,0.0230901502072811,0.0232562497258186,0.0230899006128311,0.0230801999568939,0.0232840497046709,0.0232907999306917,0.0229866988956928,0.0226146001368761,0.0222511999309063,0.021756099537015,0.0210884995758533,0.0203283485025167,0.0194452498108149,0.0183103997260332,0.0169791001826525,0.0156781002879143,0.0144737502560019,0.0132741006091237,0.0121665503829718,0.0114289503544569,0.0112340003252029,0.0115604000166059,0.0121315000578761,0.0125364996492863,0.0127734001725912,0.0132019501179457,0.0138087002560496,0.0141787501052022,0.0141189498826861,0.0137244500219822,0.0130273997783661,0.0119874002411962,0.0108038503676653,0.00983239989727736,0.00893905013799667,0.0076128002256155,0.00606569973751903,0.00517369993031025,0.00513779977336526,0.00541289988905191,0.00575669994577765,0.00633060000836849,0.00705605000257492,0.00760729983448982,0.00802280008792877,0.00866954959928989,0.00948365032672882,0.00996825005859137,0.00994165055453777,0.0096056004986167,0.00907080061733723,0.00832214951515198,0.00755074992775917,0.007099449634552,0.00691200001165271,0.00658494979143143,0.00612920010462403,0.00597395002841949,0.00622700015082955,0.00662824977189302,0.00710520008578897,0.00779184978455305,0.00855010002851486,0.00900905020534992,0.00920465029776096,0.00954414997249842,0.0100241499021649,0.0102188996970654,0.0100145498290658,0.00965919997543097,0.00923390034586191,0.00861280038952827,0.00783389993011951,0.00711379991844296,0.00653475010767579,0.00602365005761385,0.00558050023391843,0.00530904997140169,0.00530555006116629,0.0056012999266386,0.00603335024788976,0.00632885005325079,0.00656874990090728,0.00714015029370785,0.00808169972151518,0.00904509983956814,0.00979570019990206,0.0102971494197845,0.0105526996776462,0.010588750243187,0.0105515001341701,0.0106520494446158,0.0108519494533539,0.0108764497563243,0.0105828503146768,0.0100195994600654,0.0092936996370554,0.00853560026735067,0.00789059977978468,0.00748030003160238,0.00725475000217557,0.00702210003510118,0.00671134982258081,0.00641889963299036,0.00633024983108044,0.00662594987079501,0.00718489987775683,0.00761085003614426,0.00763919996097684,0.00724339997395873,0.00666079996153712,0.00629100017249584,0.00627074996009469,0.00644404999911785,0.00667174998670816,0.0069001498632133,0.00712385028600693,0.00738260010257363,0.00778499990701675,0.00844770018011332,0.00923059973865747,0.00977454986423254,0.00991579983383417,0.00972840003669262,0.00928029976785183,0.00860890001058578,0.00786984991282225,0.0072992998175323,0.00691179977729917,0.00651005003601313,0.00601750006899238,0.00552859995514154,0.00517334975302219,0.00504285003989935,0.00502385012805462,0.00484920013695955,0.0044641001150012,0.00403930013999343,0.00365814985707402,0.00328045012429357,0.00291325012221932,0.00261604995466769,0.00235174992121756,0.00200870004482567,0.00163275003433228,0.00140920002013445,0.0013569500297308,0.00131120008882135,0.00116230000276119,0.00104840006679296,0.000984749989584088,0.000894750002771616,0.000734450004529208
